Time - Plot 0	Amplitude - Plot 0	
0	0.0458226	
5E-6	0.0481079	
1E-5	0.0503815	
1.5E-5	0.0526826	
2E-5	0.0549879	
2.5E-5	0.0572822	
3E-5	0.0595081	
3.5E-5	0.0616312	
4E-5	0.0636812	
4.5E-5	0.0656336	
5E-5	0.0674768	
5.5E-5	0.0692559	
6E-5	0.0710036	
6.5E-5	0.0727431	
7E-5	0.0744425	
7.5E-5	0.0760349	
8E-5	0.0775291	
8.5E-5	0.0789829	
9E-5	0.0804364	
9.5E-5	0.0819161	
0.0001	0.083438	
0.000105	0.0850109	
0.00011	0.0866381	
0.000115	0.0882717	
0.00012	0.0898322	
0.000125	0.0913658	
0.00013	0.0929041	
0.000135	0.0943254	
0.00014	0.0956022	
0.000145	0.0968184	
0.00015	0.0979847	
0.000155	0.0991104	
0.00016	0.100251	
0.000165	0.101396	
0.00017	0.102488	
0.000175	0.103495	
0.00018	0.104445	
0.000185	0.105408	
0.00019	0.106381	
0.000195	0.107315	
0.0002	0.108179	
0.000205	0.109004	
0.00021	0.109811	
0.000215	0.110568	
0.00022	0.111305	
0.000225	0.11204	
0.00023	0.112739	
0.000235	0.113382	
0.00024	0.113958	
0.000245	0.114461	
0.00025	0.114894	
0.000255	0.115259	
0.00026	0.115562	
0.000265	0.11581	
0.00027	0.116058	
0.000275	0.116341	
0.00028	0.116587	
0.000285	0.116749	
0.00029	0.116848	
0.000295	0.1169	
0.0003	0.11692	
0.000305	0.116917	
0.00031	0.116899	
0.000315	0.116873	
0.00032	0.116841	
0.000325	0.116809	
0.00033	0.116776	
0.000335	0.116746	
0.00034	0.116718	
0.000345	0.116693	
0.00035	0.116672	
0.000355	0.116606	
0.00036	0.116466	
0.000365	0.116285	
0.00037	0.116084	
0.000375	0.11588	
0.00038	0.115636	
0.000385	0.115283	
0.00039	0.114778	
0.000395	0.114151	
0.0004	0.113472	
0.000405	0.112791	
0.00041	0.112141	
0.000415	0.111543	
0.00042	0.111006	
0.000425	0.110488	
0.00043	0.109912	
0.000435	0.109277	
0.00044	0.108634	
0.000445	0.108015	
0.00045	0.107442	
0.000455	0.106879	
0.00046	0.106253	
0.000465	0.105569	
0.00047	0.104878	
0.000475	0.104168	
0.00048	0.103431	
0.000485	0.102712	
0.00049	0.101943	
0.000495	0.101035	
0.0005	0.100031	
0.000505	0.0990112	
0.00051	0.0979813	
0.000515	0.0968987	
0.00052	0.0958324	
0.000525	0.0948749	
0.00053	0.0939394	
0.000535	0.0929674	
0.00054	0.0920175	
0.000545	0.0910794	
0.00055	0.0901461	
0.000555	0.0892124	
0.00056	0.0882276	
0.000565	0.0871606	
0.00057	0.0860424	
0.000575	0.0849432	
0.00058	0.0838611	
0.000585	0.0827939	
0.00059	0.0817394	
0.000595	0.0806006	
0.0006	0.079365	
0.000605	0.0781715	
0.00061	0.0770623	
0.000615	0.075966	
0.00062	0.0748351	
0.000625	0.0736396	
0.00063	0.0724107	
0.000635	0.0712178	
0.00064	0.0700576	
0.000645	0.0688787	
0.00065	0.0676957	
0.000655	0.066566	
0.00066	0.0654773	
0.000665	0.0643721	
0.00067	0.0632131	
0.000675	0.0620261	
0.00068	0.0609242	
0.000685	0.0599305	
0.00069	0.0589601	
0.000695	0.0579559	
0.0007	0.0568819	
0.000705	0.0557175	
0.00071	0.0544536	
0.000715	0.0531362	
0.00072	0.051846	
0.000725	0.0505871	
0.00073	0.0493133	
0.000735	0.0480425	
0.00074	0.0468337	
0.000745	0.045723	
0.00075	0.0447295	
0.000755	0.0438602	
0.00076	0.0430665	
0.000765	0.0422174	
0.00077	0.0412295	
0.000775	0.0401492	
0.00078	0.0390116	
0.000785	0.0378424	
0.00079	0.0367552	
0.000795	0.0357735	
0.0008	0.0348128	
0.000805	0.0338638	
0.00081	0.0329198	
0.000815	0.0319763	
0.00082	0.0311253	
0.000825	0.0303755	
0.00083	0.0296328	
0.000835	0.0288348	
0.00084	0.0279431	
0.000845	0.0269842	
0.00085	0.0260264	
0.000855	0.0251146	
0.00086	0.0242763	
0.000865	0.0234785	
0.00087	0.0226025	
0.000875	0.0216214	
0.00088	0.020665	
0.000885	0.0198175	
0.00089	0.0190819	
0.000895	0.018455	
0.0009	0.0179293	
0.000905	0.0174477	
0.00091	0.0168754	
0.000915	0.0161276	
0.00092	0.0152997	
0.000925	0.0145054	
0.00093	0.0137235	
0.000935	0.0129392	
0.00094	0.0121903	
0.000945	0.0115003	
0.00095	0.0108816	
0.000955	0.0103869	
0.00096	0.0099972	
0.000965	0.00955265	
0.00097	0.00899785	
0.000975	0.00834908	
0.00098	0.0076215	
0.000985	0.00687637	
0.00099	0.00610736	
0.000995	0.00531146	
0.001	0.00453547	
0.001005	0.00376178	
0.00101	0.00297865	
0.001015	0.00227388	
0.00102	0.00165411	
0.001025	0.00102463	
0.00103	0.000418518	
0.001035	-9.59846E-5	
0.00104	-0.000573285	
0.001045	-0.00105102	
0.00105	-0.0014589	
0.001055	-0.0017539	
0.00106	-0.00200806	
0.001065	-0.00231834	
0.00107	-0.00269848	
0.001075	-0.00305917	
0.00108	-0.00334244	
0.001085	-0.00356126	
0.00109	-0.00372724	
0.001095	-0.00385053	
0.0011	-0.00398738	
0.001105	-0.00422176	
0.00111	-0.00450937	
0.001115	-0.00477093	
0.00112	-0.00500294	
0.001125	-0.00515697	
0.00113	-0.00525229	
0.001135	-0.00539947	
0.00114	-0.00562141	
0.001145	-0.00583461	
0.00115	-0.00598443	
0.001155	-0.00613292	
0.00116	-0.00636856	
0.001165	-0.00665053	
0.00117	-0.00680711	
0.001175	-0.00682606	
0.00118	-0.00680091	
0.001185	-0.00670034	
0.00119	-0.00655479	
0.001195	-0.00643402	
0.0012	-0.00633528	
0.001205	-0.00625575	
0.00121	-0.0061451	
0.001215	-0.00597164	
0.00122	-0.00576497	
0.001225	-0.00554617	
0.00123	-0.00532973	
0.001235	-0.00512508	
0.00124	-0.00489034	
0.001245	-0.00459934	
0.00125	-0.00433254	
0.001255	-0.00404678	
0.00126	-0.00361942	
0.001265	-0.00316646	
0.00127	-0.00286064	
0.001275	-0.00266631	
0.00128	-0.0024596	
0.001285	-0.00220697	
0.00129	-0.00193602	
0.001295	-0.0016658	
0.0013	-0.00140885	
0.001305	-0.00107772	
0.00131	-0.000523206	
0.001315	0.000294972	
0.00132	0.00134337	
0.001325	0.00258905	
0.00133	0.00404848	
0.001335	0.00576998	
0.00134	0.00772544	
0.001345	0.00983775	
0.00135	0.0120486	
0.001355	0.014315	
0.00136	0.0166059	
0.001365	0.0188996	
0.00137	0.0212293	
0.001375	0.0236152	
0.00138	0.0259727	
0.001385	0.0282477	
0.00139	0.0304556	
0.001395	0.03261	
0.0014	0.0347223	
0.001405	0.036802	
0.00141	0.0388568	
0.001415	0.0408932	
0.00142	0.0429162	
0.001425	0.0449297	
0.00143	0.0469368	
0.001435	0.0488923	
0.00144	0.0507213	
0.001445	0.0523328	
0.00145	0.0537247	
0.001455	0.0550486	
0.00146	0.0564076	
0.001465	0.0578206	
0.00147	0.0592974	
0.001475	0.060794	
0.00148	0.0622328	
0.001485	0.063613	
0.00149	0.0649368	
0.001495	0.0662084	
0.0015	0.0674805	
0.001505	0.0687877	
0.00151	0.0701039	
0.001515	0.0713162	
0.00152	0.0723552	
0.001525	0.0732306	
0.00153	0.0740044	
0.001535	0.0747697	
0.00154	0.0757783	
0.001545	0.0771374	
0.00155	0.0784256	
0.001555	0.079416	
0.00156	0.0802582	
0.001565	0.0810105	
0.00157	0.0816679	
0.001575	0.0822316	
0.00158	0.0827068	
0.001585	0.0831013	
0.00159	0.0834239	
0.001595	0.0836838	
0.0016	0.0838901	
0.001605	0.0840513	
0.00161	0.0841751	
0.001615	0.084316	
0.00162	0.0845089	
0.001625	0.0846796	
0.00163	0.0847799	
0.001635	0.0847816	
0.00164	0.0846707	
0.001645	0.0845382	
0.00165	0.0844454	
0.001655	0.0843831	
0.00166	0.0843439	
0.001665	0.0843692	
0.00167	0.0844835	
0.001675	0.0846035	
0.00168	0.0846741	
0.001685	0.0847087	
0.00169	0.0847179	
0.001695	0.0846625	
0.0017	0.0845195	
0.001705	0.0843256	
0.00171	0.0840596	
0.001715	0.0837588	
0.00172	0.0834968	
0.001725	0.0832252	
0.00173	0.08277	
0.001735	0.0820251	
0.00174	0.081172	
0.001745	0.0803829	
0.00175	0.0796734	
0.001755	0.0790499	
0.00176	0.0785127	
0.001765	0.0780576	
0.00177	0.0776308	
0.001775	0.0771477	
0.00178	0.0766028	
0.001785	0.0759954	
0.00179	0.0752805	
0.001795	0.0744809	
0.0018	0.0736633	
0.001805	0.0728726	
0.00181	0.0720894	
0.001815	0.0712531	
0.00182	0.0703739	
0.001825	0.0693653	
0.00183	0.0681765	
0.001835	0.0670202	
0.00184	0.0659876	
0.001845	0.0650378	
0.00185	0.0641876	
0.001855	0.0633956	
0.00186	0.062537	
0.001865	0.0615799	
0.00187	0.0606032	
0.001875	0.0596121	
0.00188	0.058611	
0.001885	0.0576031	
0.00189	0.0565433	
0.001895	0.0554518	
0.0019	0.0543911	
0.001905	0.0533058	
0.00191	0.052113	
0.001915	0.0508582	
0.00192	0.0495268	
0.001925	0.0481128	
0.00193	0.0467587	
0.001935	0.0455082	
0.00194	0.0442901	
0.001945	0.0431034	
0.00195	0.0419935	
0.001955	0.0409393	
0.00196	0.039924	
0.001965	0.038935	
0.00197	0.0378674	
0.001975	0.036751	
0.00198	0.0357027	
0.001985	0.0347014	
0.00199	0.0337309	
0.001995	0.0328266	
0.002	0.0319612	
0.002005	0.0310673	
0.00201	0.0301493	
0.002015	0.0293065	
0.00202	0.028553	
0.002025	0.0277515	
0.00203	0.0268611	
0.002035	0.0259068	
0.00204	0.0248603	
0.002045	0.0237551	
0.00205	0.0226158	
0.002055	0.0214605	
0.00206	0.0203491	
0.002065	0.0192719	
0.00207	0.0182205	
0.002075	0.0172835	
0.00208	0.0164662	
0.002085	0.0156238	
0.00209	0.0147097	
0.002095	0.013744	
0.0021	0.0126949	
0.002105	0.0115929	
0.00211	0.010413	
0.002115	0.00909506	
0.00212	0.00774835	
0.002125	0.00644639	
0.00213	0.00514045	
0.002135	0.00384611	
0.00214	0.00262065	
0.002145	0.00149855	
0.00215	0.00045015	
0.002155	-0.000547609	
0.00216	-0.00146479	
0.002165	-0.00233299	
0.00217	-0.00331798	
0.002175	-0.00447598	
0.00218	-0.00559823	
0.002185	-0.00659628	
0.00219	-0.00756031	
0.002195	-0.00850384	
0.0022	-0.0093417	
0.002205	-0.0101178	
0.00221	-0.0109591	
0.002215	-0.0118035	
0.00222	-0.0125626	
0.002225	-0.0132294	
0.00223	-0.0138515	
0.002235	-0.0145572	
0.00224	-0.0153798	
0.002245	-0.0162405	
0.00225	-0.0170857	
0.002255	-0.017833	
0.00226	-0.0184806	
0.002265	-0.0189842	
0.00227	-0.0193215	
0.002275	-0.0197708	
0.00228	-0.020463	
0.002285	-0.0212825	
0.00229	-0.0221472	
0.002295	-0.0230009	
0.0023	-0.0238068	
0.002305	-0.0245432	
0.00231	-0.0251988	
0.002315	-0.0258178	
0.00232	-0.0264784	
0.002325	-0.0271352	
0.00233	-0.0277109	
0.002335	-0.0282534	
0.00234	-0.0287959	
0.002345	-0.0293128	
0.00235	-0.0297883	
0.002355	-0.030214	
0.00236	-0.0304917	
0.002365	-0.0306111	
0.00237	-0.0307632	
0.002375	-0.0309771	
0.00238	-0.0312216	
0.002385	-0.0315699	
0.00239	-0.0320176	
0.002395	-0.0325573	
0.0024	-0.0331795	
0.002405	-0.0337793	
0.00241	-0.0342884	
0.002415	-0.0347135	
0.00242	-0.0350633	
0.002425	-0.0353467	
0.00243	-0.0355731	
0.002435	-0.0357986	
0.00244	-0.036108	
0.002445	-0.0365056	
0.00245	-0.0369425	
0.002455	-0.0374798	
0.00246	-0.0381529	
0.002465	-0.0387886	
0.00247	-0.0392746	
0.002475	-0.0395913	
0.00248	-0.0397339	
0.002485	-0.0398025	
0.00249	-0.0398665	
0.002495	-0.0399246	
0.0025	-0.0399759	
0.002505	-0.0400204	
0.00251	-0.0400108	
0.002515	-0.0399184	
0.00252	-0.0397757	
0.002525	-0.0396067	
0.00253	-0.0394283	
0.002535	-0.0388719	
0.00254	-0.037427	
0.002545	-0.035227	
0.00255	-0.0327283	
0.002555	-0.0301032	
0.00256	-0.0272338	
0.002565	-0.0241013	
0.00257	-0.020896	
0.002575	-0.0176992	
0.00258	-0.014469	
0.002585	-0.0112746	
0.00259	-0.00820733	
0.002595	-0.00522632	
0.0026	-0.00230059	
0.002605	0.000545388	
0.00261	0.00329924	
0.002615	0.00590963	
0.00262	0.00834951	
0.002625	0.0106566	
0.00263	0.0128146	
0.002635	0.0148673	
0.00264	0.0168961	
0.002645	0.0186705	
0.00265	0.0200507	
0.002655	0.0213909	
0.00266	0.022879	
0.002665	0.0244418	
0.00267	0.0261225	
0.002675	0.0278966	
0.00268	0.0296958	
0.002685	0.0315216	
0.00269	0.033326	
0.002695	0.0350786	
0.0027	0.0368092	
0.002705	0.038491	
0.00271	0.0401086	
0.002715	0.0417024	
0.00272	0.0432526	
0.002725	0.0447009	
0.00273	0.0460134	
0.002735	0.0472218	
0.00274	0.0484471	
0.002745	0.0497205	
0.00275	0.0509181	
0.002755	0.0520088	
0.00276	0.0530727	
0.002765	0.0541161	
0.00277	0.0551441	
0.002775	0.0562085	
0.00278	0.057294	
0.002785	0.0583421	
0.00279	0.059316	
0.002795	0.0602424	
0.0028	0.0611888	
0.002805	0.0621511	
0.00281	0.0630784	
0.002815	0.0639387	
0.00282	0.0647618	
0.002825	0.0655688	
0.00283	0.0663272	
0.002835	0.06697	
0.00284	0.0674588	
0.002845	0.0679654	
0.00285	0.0686024	
0.002855	0.0692478	
0.00286	0.0698206	
0.002865	0.070366	
0.00287	0.0709151	
0.002875	0.0714406	
0.00288	0.0719733	
0.002885	0.072533	
0.00289	0.0730841	
0.002895	0.0736035	
0.0029	0.0740773	
0.002905	0.0744987	
0.00291	0.0748657	
0.002915	0.0751793	
0.00292	0.0754905	
0.002925	0.075833	
0.00293	0.0760847	
0.002935	0.0761697	
0.00294	0.0761882	
0.002945	0.0762571	
0.00295	0.0764035	
0.002955	0.0765466	
0.00296	0.0766807	
0.002965	0.07685	
0.00297	0.076987	
0.002975	0.0770488	
0.00298	0.0770579	
0.002985	0.077032	
0.00299	0.0769842	
0.002995	0.0769241	
0.003	0.0768589	
0.003005	0.0767458	
0.00301	0.076559	
0.003015	0.0763323	
0.00302	0.0760426	
0.003025	0.075725	
0.00303	0.0754517	
0.003035	0.0751728	
0.00304	0.074856	
0.003045	0.0745767	
0.00305	0.0743828	
0.003055	0.0742069	
0.00306	0.0740037	
0.003065	0.0737445	
0.00307	0.0733656	
0.003075	0.0728782	
0.00308	0.0723422	
0.003085	0.0717996	
0.00309	0.0712783	
0.003095	0.0707482	
0.0031	0.0701422	
0.003105	0.0694673	
0.00311	0.0687315	
0.003115	0.0679426	
0.00312	0.0671562	
0.003125	0.066361	
0.00313	0.06555	
0.003135	0.0647196	
0.00314	0.0638205	
0.003145	0.0628711	
0.00315	0.0618859	
0.003155	0.0608761	
0.00316	0.059898	
0.003165	0.0589869	
0.00317	0.0581632	
0.003175	0.0573409	
0.00318	0.0564159	
0.003185	0.0554193	
0.00319	0.0544228	
0.003195	0.0534733	
0.0032	0.0525523	
0.003205	0.051646	
0.00321	0.0507924	
0.003215	0.0498712	
0.00322	0.0487589	
0.003225	0.0475733	
0.00323	0.0463953	
0.003235	0.0452305	
0.00324	0.0441296	
0.003245	0.0430753	
0.00325	0.0420065	
0.003255	0.0408837	
0.00326	0.0397308	
0.003265	0.0386126	
0.00327	0.0375701	
0.003275	0.0365794	
0.00328	0.0355746	
0.003285	0.034513	
0.00329	0.033369	
0.003295	0.0321773	
0.0033	0.0310105	
0.003305	0.0299152	
0.00331	0.0289191	
0.003315	0.0279877	
0.00332	0.0270006	
0.003325	0.0258808	
0.00333	0.024679	
0.003335	0.0234798	
0.00334	0.0223392	
0.003345	0.0212436	
0.00335	0.0201344	
0.003355	0.0189736	
0.00336	0.0177862	
0.003365	0.0166374	
0.00337	0.0155209	
0.003375	0.0144309	
0.00338	0.0134099	
0.003385	0.0124828	
0.00339	0.0116138	
0.003395	0.0107293	
0.0034	0.00978116	
0.003405	0.00869341	
0.00341	0.00746996	
0.003415	0.00626244	
0.00342	0.00517007	
0.003425	0.00415776	
0.00343	0.00319857	
0.003435	0.00236732	
0.00344	0.00165973	
0.003445	0.000924549	
0.00345	6.33336E-5	
0.003455	-0.000887781	
0.00346	-0.00185319	
0.003465	-0.00278235	
0.00347	-0.00364367	
0.003475	-0.00446706	
0.00348	-0.00532156	
0.003485	-0.0062037	
0.00349	-0.00706234	
0.003495	-0.0079124	
0.0035	-0.00885921	
0.003505	-0.00987256	
0.00351	-0.0107868	
0.003515	-0.0115924	
0.00352	-0.0123359	
0.003525	-0.0130507	
0.00353	-0.0138079	
0.003535	-0.0146048	
0.00354	-0.0153902	
0.003545	-0.0161783	
0.00355	-0.0169786	
0.003555	-0.0177489	
0.00356	-0.0185107	
0.003565	-0.0192783	
0.00357	-0.020061	
0.003575	-0.0208641	
0.00358	-0.0216427	
0.003585	-0.0224159	
0.00359	-0.0231965	
0.003595	-0.023945	
0.0036	-0.024637	
0.003605	-0.0253065	
0.00361	-0.0260246	
0.003615	-0.0267883	
0.00362	-0.0274984	
0.003625	-0.028092	
0.00363	-0.0286284	
0.003635	-0.0291491	
0.00364	-0.0296824	
0.003645	-0.0302463	
0.00365	-0.0307562	
0.003655	-0.0312064	
0.00366	-0.031691	
0.003665	-0.0322228	
0.00367	-0.0327607	
0.003675	-0.0332771	
0.00368	-0.033755	
0.003685	-0.0342323	
0.00369	-0.0347343	
0.003695	-0.0351812	
0.0037	-0.0355707	
0.003705	-0.035999	
0.00371	-0.0364801	
0.003715	-0.0369733	
0.00372	-0.0374512	
0.003725	-0.0378488	
0.00373	-0.0381271	
0.003735	-0.0383612	
0.00374	-0.0386026	
0.003745	-0.0388373	
0.00375	-0.0390566	
0.003755	-0.0392553	
0.00376	-0.0394786	
0.003765	-0.039755	
0.00377	-0.0400535	
0.003775	-0.0403523	
0.00378	-0.0405897	
0.003785	-0.0407754	
0.00379	-0.0409657	
0.003795	-0.0411501	
0.0038	-0.0413219	
0.003805	-0.0414297	
0.00381	-0.0414426	
0.003815	-0.0413924	
0.00382	-0.0413505	
0.003825	-0.0413636	
0.00383	-0.0413647	
0.003835	-0.0413105	
0.00384	-0.0412222	
0.003845	-0.0411633	
0.00385	-0.0411739	
0.003855	-0.0411825	
0.00386	-0.0410942	
0.003865	-0.0408986	
0.00387	-0.0406892	
0.003875	-0.040528	
0.00388	-0.0404062	
0.003885	-0.0403163	
0.00389	-0.0402039	
0.003895	-0.0400347	
0.0039	-0.0398359	
0.003905	-0.0395795	
0.00391	-0.0392496	
0.003915	-0.038887	
0.00392	-0.03852	
0.003925	-0.0381673	
0.00393	-0.0378408	
0.003935	-0.0374995	
0.00394	-0.037022	
0.003945	-0.0362871	
0.00395	-0.035227	
0.003955	-0.0338127	
0.00396	-0.0318038	
0.003965	-0.0288799	
0.00397	-0.0251583	
0.003975	-0.0209916	
0.00398	-0.016586	
0.003985	-0.0120411	
0.00399	-0.00733409	
0.003995	-0.0024576	
0.004	0.00229998	
0.004005	0.0067066	
0.00401	0.010816	
0.004015	0.0147252	
0.00402	0.0185077	
0.004025	0.0221703	
0.00403	0.0256756	
0.004035	0.0290067	
0.00404	0.0321602	
0.004045	0.0351427	
0.00405	0.0378238	
0.004055	0.0401318	
0.00406	0.0423224	
0.004065	0.0445695	
0.00407	0.0467952	
0.004075	0.0489491	
0.00408	0.0510488	
0.004085	0.053061	
0.00409	0.0549679	
0.004095	0.0568577	
0.0041	0.058742	
0.004105	0.0605335	
0.00411	0.0622741	
0.004115	0.0640416	
0.00412	0.0657906	
0.004125	0.0674447	
0.00413	0.0690056	
0.004135	0.0705263	
0.00414	0.071996	
0.004145	0.0734577	
0.00415	0.0749876	
0.004155	0.0764901	
0.00416	0.0779035	
0.004165	0.0792863	
0.00417	0.0806311	
0.004175	0.0818872	
0.00418	0.0831206	
0.004185	0.0844231	
0.00419	0.0857573	
0.004195	0.0870491	
0.0042	0.088252	
0.004205	0.0893869	
0.00421	0.0904707	
0.004215	0.0914697	
0.00422	0.092413	
0.004225	0.09337	
0.00423	0.0943384	
0.004235	0.0952684	
0.00424	0.0961767	
0.004245	0.0970753	
0.00425	0.0978774	
0.004255	0.0985304	
0.00426	0.0991018	
0.004265	0.0996874	
0.00427	0.100255	
0.004275	0.100735	
0.00428	0.101184	
0.004285	0.101638	
0.00429	0.102073	
0.004295	0.102476	
0.0043	0.102839	
0.004305	0.103158	
0.00431	0.103432	
0.004315	0.103665	
0.00432	0.103906	
0.004325	0.10419	
0.00433	0.10444	
0.004335	0.104514	
0.00434	0.104373	
0.004345	0.104192	
0.00435	0.104088	
0.004355	0.10404	
0.00436	0.104079	
0.004365	0.104221	
0.00437	0.104423	
0.004375	0.104609	
0.00438	0.10468	
0.004385	0.104625	
0.00439	0.10444	
0.004395	0.104133	
0.0044	0.103758	
0.004405	0.103357	
0.00441	0.102958	
0.004415	0.102578	
0.00442	0.102182	
0.004425	0.101699	
0.00443	0.101229	
0.004435	0.100885	
0.00444	0.100544	
0.004445	0.100128	
0.00445	0.0996335	
0.004455	0.0990633	
0.00446	0.0984702	
0.004465	0.097795	
0.00447	0.0970025	
0.004475	0.0962177	
0.00448	0.0954751	
0.004485	0.0947004	
0.00449	0.0938936	
0.004495	0.0931038	
0.0045	0.092315	
0.004505	0.0914691	
0.00451	0.0905781	
0.004515	0.0896995	
0.00452	0.088823	
0.004525	0.0879419	
0.00453	0.0870994	
0.004535	0.0862271	
0.00454	0.0852339	
0.004545	0.0841603	
0.00455	0.0830846	
0.004555	0.0820582	
0.00456	0.0811131	
0.004565	0.0802186	
0.00457	0.0793523	
0.004575	0.0785455	
0.00458	0.0777686	
0.004585	0.0769531	
0.00459	0.0761032	
0.004595	0.0752708	
0.0046	0.0743942	
0.004605	0.0733874	
0.00461	0.0722947	
0.004615	0.0711972	
0.00462	0.0701008	
0.004625	0.068962	
0.00463	0.0678015	
0.004635	0.0666816	
0.00464	0.0655939	
0.004645	0.0644838	
0.00465	0.0633639	
0.004655	0.062243	
0.00466	0.0610793	
0.004665	0.059895	
0.00467	0.0587531	
0.004675	0.0576931	
0.00468	0.0567374	
0.004685	0.0558479	
0.00469	0.0549492	
0.004695	0.0539919	
0.0047	0.052946	
0.004705	0.0518438	
0.00471	0.0507565	
0.004715	0.0497305	
0.00472	0.0487935	
0.004725	0.0479118	
0.00473	0.0470133	
0.004735	0.0460987	
0.00474	0.0451692	
0.004745	0.0441787	
0.00475	0.0431474	
0.004755	0.0421379	
0.00476	0.041143	
0.004765	0.0401573	
0.00477	0.0392242	
0.004775	0.0383224	
0.00478	0.0374364	
0.004785	0.0366027	
0.00479	0.0357954	
0.004795	0.0349486	
0.0048	0.0340682	
0.004805	0.0332074	
0.00481	0.0324002	
0.004815	0.031619	
0.00482	0.0307968	
0.004825	0.0299389	
0.00483	0.0290505	
0.004835	0.0281365	
0.00484	0.0272964	
0.004845	0.0265447	
0.00485	0.0257919	
0.004855	0.0250263	
0.00486	0.0242885	
0.004865	0.0235565	
0.00487	0.0227677	
0.004875	0.0219314	
0.00488	0.0211032	
0.004885	0.0203196	
0.00489	0.0195549	
0.004895	0.0187437	
0.0049	0.0178928	
0.004905	0.0170559	
0.00491	0.0162678	
0.004915	0.0155016	
0.00492	0.0147386	
0.004925	0.0140138	
0.00493	0.0133009	
0.004935	0.012582	
0.00494	0.0118457	
0.004945	0.0110851	
0.00495	0.0103445	
0.004955	0.0096522	
0.00496	0.0090244	
0.004965	0.00846884	
0.00497	0.00798719	
0.004975	0.00752952	
0.00498	0.00706177	
0.004985	0.0066095	
0.00499	0.00618882	
0.004995	0.00576134	
0.005	0.00525452	
0.005005	0.00467183	
0.00501	0.00406667	
0.005015	0.00347531	
0.00502	0.00296857	
0.005025	0.00258912	
0.00503	0.002264	
0.005035	0.00194256	
0.00504	0.0015912	
0.005045	0.00114167	
0.00505	0.000601137	
0.005055	2.61655E-5	
0.00506	-0.000544317	
0.005065	-0.00108486	
0.00507	-0.00158009	
0.005075	-0.00202202	
0.00508	-0.00240792	
0.005085	-0.00278614	
0.00509	-0.00318895	
