Time - Plot 0	Amplitude - Plot 0	
0	0.0807237	
5E-6	0.0818516	
1E-5	0.082907	
1.5E-5	0.0839123	
2E-5	0.0849319	
2.5E-5	0.0859604	
3E-5	0.086946	
3.5E-5	0.0878568	
4E-5	0.0886751	
4.5E-5	0.0894414	
5E-5	0.0902321	
5.5E-5	0.0910491	
6E-5	0.0918447	
6.5E-5	0.0925887	
7E-5	0.0933109	
7.5E-5	0.0940322	
8E-5	0.0946712	
8.5E-5	0.0952257	
9E-5	0.0957933	
9.5E-5	0.0963904	
0.0001	0.0969785	
0.000105	0.097533	
0.00011	0.098039	
0.000115	0.0985367	
0.00012	0.0990529	
0.000125	0.0995094	
0.00013	0.0998573	
0.000135	0.100117	
0.00014	0.100307	
0.000145	0.100441	
0.00015	0.100533	
0.000155	0.100591	
0.00016	0.100626	
0.000165	0.100643	
0.00017	0.100648	
0.000175	0.100596	
0.00018	0.100463	
0.000185	0.100329	
0.00019	0.100249	
0.000195	0.100209	
0.0002	0.100196	
0.000205	0.100202	
0.00021	0.100172	
0.000215	0.100026	
0.00022	0.0998094	
0.000225	0.0996043	
0.00023	0.099369	
0.000235	0.0990773	
0.00024	0.0987622	
0.000245	0.0984467	
0.00025	0.0981457	
0.000255	0.0978211	
0.00026	0.0974011	
0.000265	0.0968906	
0.00027	0.0963446	
0.000275	0.0958009	
0.00028	0.095237	
0.000285	0.0946389	
0.00029	0.0940465	
0.000295	0.0934384	
0.0003	0.0927536	
0.000305	0.0919556	
0.00031	0.0910731	
0.000315	0.0901766	
0.00032	0.0893134	
0.000325	0.0885129	
0.00033	0.0877916	
0.000335	0.0871091	
0.00034	0.0863894	
0.000345	0.0856317	
0.00035	0.0848848	
0.000355	0.0841327	
0.00036	0.0833178	
0.000365	0.0825	
0.00037	0.0817189	
0.000375	0.0808564	
0.00038	0.079886	
0.000385	0.0788427	
0.00039	0.0777057	
0.000395	0.0765131	
0.0004	0.0753403	
0.000405	0.074236	
0.00041	0.0731816	
0.000415	0.0721148	
0.00042	0.0710429	
0.000425	0.0699706	
0.00043	0.0688539	
0.000435	0.0677131	
0.00044	0.0665628	
0.000445	0.0653656	
0.00045	0.0641466	
0.000455	0.0629708	
0.00046	0.0619267	
0.000465	0.0610189	
0.00047	0.0601011	
0.000475	0.0591252	
0.00048	0.058062	
0.000485	0.056849	
0.00049	0.055547	
0.000495	0.0542004	
0.0005	0.0527929	
0.000505	0.0513169	
0.00051	0.049818	
0.000515	0.0483748	
0.00052	0.0470366	
0.000525	0.0457835	
0.00053	0.0445506	
0.000535	0.0433418	
0.00054	0.0421586	
0.000545	0.0409531	
0.00055	0.0397424	
0.000555	0.038443	
0.00056	0.0369563	
0.000565	0.0354641	
0.00057	0.0340862	
0.000575	0.0328015	
0.00058	0.0316389	
0.000585	0.0305643	
0.00059	0.0295034	
0.000595	0.0283592	
0.0006	0.0271191	
0.000605	0.0258744	
0.00061	0.0246381	
0.000615	0.0233706	
0.00062	0.022095	
0.000625	0.0209219	
0.00063	0.0198719	
0.000635	0.0189052	
0.00064	0.0180392	
0.000645	0.0172329	
0.00065	0.0165042	
0.000655	0.015861	
0.00066	0.0151621	
0.000665	0.0143169	
0.00067	0.0133202	
0.000675	0.0122231	
0.00068	0.0111118	
0.000685	0.00999608	
0.00069	0.00883519	
0.000695	0.00765189	
0.0007	0.00650976	
0.000705	0.00540128	
0.00071	0.00427234	
0.000715	0.00313576	
0.00072	0.00200038	
0.000725	0.000871942	
0.00073	-0.000151001	
0.000735	-0.00105601	
0.00074	-0.00193552	
0.000745	-0.00285169	
0.00075	-0.00379624	
0.000755	-0.00466728	
0.00076	-0.00544867	
0.000765	-0.00622905	
0.00077	-0.00701939	
0.000775	-0.00777892	
0.00078	-0.00848221	
0.000785	-0.00916269	
0.00079	-0.00989102	
0.000795	-0.010664	
0.0008	-0.0114298	
0.000805	-0.0122023	
0.00081	-0.0130376	
0.000815	-0.0139224	
0.00082	-0.014798	
0.000825	-0.0156262	
0.00083	-0.0164314	
0.000835	-0.0172784	
0.00084	-0.0181605	
0.000845	-0.019024	
0.00085	-0.0198344	
0.000855	-0.0205715	
0.00086	-0.0212253	
0.000865	-0.0217934	
0.00087	-0.0223255	
0.000875	-0.0229039	
0.00088	-0.0235329	
0.000885	-0.0241656	
0.00089	-0.0247708	
0.000895	-0.0253292	
0.0009	-0.0258779	
0.000905	-0.0264893	
0.00091	-0.0271607	
0.000915	-0.0278398	
0.00092	-0.0285396	
0.000925	-0.0292672	
0.00093	-0.0299314	
0.000935	-0.0304748	
0.00094	-0.0309604	
0.000945	-0.0314799	
0.00095	-0.0319973	
0.000955	-0.0324412	
0.00096	-0.0328632	
0.000965	-0.0332984	
0.00097	-0.0337217	
0.000975	-0.0341171	
0.00098	-0.0344279	
0.000985	-0.0346206	
0.00099	-0.0348215	
0.000995	-0.0351609	
0.001	-0.0355755	
0.001005	-0.035925	
0.00101	-0.0361676	
0.001015	-0.0363282	
0.00102	-0.0364271	
0.001025	-0.0365282	
0.00103	-0.0366735	
0.001035	-0.0368411	
0.00104	-0.0370154	
0.001045	-0.0371384	
0.00105	-0.0371742	
0.001055	-0.0371984	
0.00106	-0.0373088	
0.001065	-0.0375184	
0.00107	-0.0377835	
0.001075	-0.0380251	
0.00108	-0.0381447	
0.001085	-0.0381782	
0.00109	-0.0382484	
0.001095	-0.0383871	
0.0011	-0.0385643	
0.001105	-0.038711	
0.00111	-0.0387356	
0.001115	-0.0386786	
0.00112	-0.0386179	
0.001125	-0.0385101	
0.00113	-0.0383289	
0.001135	-0.0381078	
0.00114	-0.0378709	
0.001145	-0.0376348	
0.00115	-0.0374104	
0.001155	-0.0371567	
0.00116	-0.0368482	
0.001165	-0.0365182	
0.00117	-0.036142	
0.001175	-0.0357057	
0.00118	-0.0352028	
0.001185	-0.0346323	
0.00119	-0.0340917	
0.001195	-0.0336439	
0.0012	-0.033231	
0.001205	-0.032718	
0.00121	-0.0320206	
0.001215	-0.0309495	
0.00122	-0.0292072	
0.001225	-0.0268197	
0.00123	-0.0240245	
0.001235	-0.0209976	
0.00124	-0.0178186	
0.001245	-0.014547	
0.00125	-0.0112741	
0.001255	-0.00805996	
0.00126	-0.00494157	
0.001265	-0.00189119	
0.00127	0.00111268	
0.001275	0.00403888	
0.00128	0.00682299	
0.001285	0.00938175	
0.00129	0.0117184	
0.001295	0.0138932	
0.0013	0.016001	
0.001305	0.0181076	
0.00131	0.0201612	
0.001315	0.0220828	
0.00132	0.023874	
0.001325	0.0255896	
0.00133	0.0272217	
0.001335	0.0287691	
0.00134	0.0302825	
0.001345	0.0317495	
0.00135	0.033164	
0.001355	0.0346197	
0.00136	0.0361761	
0.001365	0.0377731	
0.00137	0.0393211	
0.001375	0.0407637	
0.00138	0.0420685	
0.001385	0.0432683	
0.00139	0.0444372	
0.001395	0.045578	
0.0014	0.0466938	
0.001405	0.0478354	
0.00141	0.0489876	
0.001415	0.0500923	
0.00142	0.0511134	
0.001425	0.0520786	
0.00143	0.0530564	
0.001435	0.0539963	
0.00144	0.0548191	
0.001445	0.0555734	
0.00145	0.0562944	
0.001455	0.0569593	
0.00146	0.0575557	
0.001465	0.0580789	
0.00147	0.058529	
0.001475	0.0589571	
0.00148	0.0594455	
0.001485	0.0599982	
0.00149	0.0604721	
0.001495	0.0607764	
0.0015	0.0610497	
0.001505	0.0613846	
0.00151	0.0617919	
0.001515	0.0622752	
0.00152	0.0627857	
0.001525	0.06329	
0.00153	0.0637188	
0.001535	0.0640776	
0.00154	0.0644208	
0.001545	0.0647375	
0.00155	0.0650692	
0.001555	0.0654427	
0.00156	0.0658261	
0.001565	0.0661978	
0.00157	0.0665444	
0.001575	0.0668103	
0.00158	0.066963	
0.001585	0.0670814	
0.00159	0.067219	
0.001595	0.0673154	
0.0016	0.0672848	
0.001605	0.0671245	
0.00161	0.0668863	
0.001615	0.0666079	
0.00162	0.0662686	
0.001625	0.0659053	
0.00163	0.0656384	
0.001635	0.0654477	
0.00164	0.0652687	
0.001645	0.0651059	
0.00165	0.0649139	
0.001655	0.0646167	
0.00166	0.0642166	
0.001665	0.0637677	
0.00167	0.0633077	
0.001675	0.0628147	
0.00168	0.0623708	
0.001685	0.0620753	
0.00169	0.0617966	
0.001695	0.061447	
0.0017	0.0610198	
0.001705	0.0605139	
0.00171	0.0599802	
0.001715	0.0594058	
0.00172	0.0587368	
0.001725	0.0579893	
0.00173	0.057178	
0.001735	0.056268	
0.00174	0.0552883	
0.001745	0.054309	
0.00175	0.0533764	
0.001755	0.0525185	
0.00176	0.0517031	
0.001765	0.0508591	
0.00177	0.0499411	
0.001775	0.0490178	
0.00178	0.0481821	
0.001785	0.0473487	
0.00179	0.0464136	
0.001795	0.0454081	
0.0018	0.0444038	
0.001805	0.0434002	
0.00181	0.0424446	
0.001815	0.0416133	
0.00182	0.0408559	
0.001825	0.0400878	
0.00183	0.0392539	
0.001835	0.0383686	
0.00184	0.0374438	
0.001845	0.0364415	
0.00185	0.0353881	
0.001855	0.0343507	
0.00186	0.033373	
0.001865	0.0324809	
0.00187	0.0316399	
0.001875	0.0307772	
0.00188	0.0298936	
0.001885	0.029038	
0.00189	0.0281937	
0.001895	0.0273017	
0.0019	0.0263731	
0.001905	0.0254165	
0.00191	0.0244393	
0.001915	0.0234947	
0.00192	0.0225688	
0.001925	0.0216038	
0.00193	0.0206113	
0.001935	0.019695	
0.00194	0.0188724	
0.001945	0.0180553	
0.00195	0.0172331	
0.001955	0.0163987	
0.00196	0.0155008	
0.001965	0.0145559	
0.00197	0.0136247	
0.001975	0.0127466	
0.00198	0.0118975	
0.001985	0.0110126	
0.00199	0.0100984	
0.001995	0.00920812	
0.002	0.0084233	
0.002005	0.0077451	
0.00201	0.00702669	
0.002015	0.00622066	
0.00202	0.00539498	
0.002025	0.00459541	
0.00203	0.00380333	
0.002035	0.00295858	
0.00204	0.00207153	
0.002045	0.00119854	
0.00205	0.000376105	
0.002055	-0.000421626	
0.00206	-0.00126041	
0.002065	-0.00208659	
0.00207	-0.00281785	
0.002075	-0.003547	
0.00208	-0.00438289	
0.002085	-0.00529715	
0.00209	-0.00621984	
0.002095	-0.00710445	
0.0021	-0.00792212	
0.002105	-0.00865696	
0.00211	-0.00930245	
0.002115	-0.00990602	
0.00212	-0.0105485	
0.002125	-0.0112337	
0.00213	-0.0119148	
0.002135	-0.0125609	
0.00214	-0.0132008	
0.002145	-0.0139016	
0.00215	-0.0146569	
0.002155	-0.0154123	
0.00216	-0.0161321	
0.002165	-0.0167944	
0.00217	-0.0173875	
0.002175	-0.0179068	
0.00218	-0.0184006	
0.002185	-0.0189966	
0.00219	-0.019632	
0.002195	-0.0201206	
0.0022	-0.0205369	
0.002205	-0.0210284	
0.00221	-0.0216414	
0.002215	-0.0223054	
0.00222	-0.0229241	
0.002225	-0.0234837	
0.00223	-0.0239779	
0.002235	-0.0244531	
0.00224	-0.0249408	
0.002245	-0.0254137	
0.00225	-0.0258545	
0.002255	-0.0262533	
0.00226	-0.0266055	
0.002265	-0.0269103	
0.00227	-0.0271695	
0.002275	-0.0274339	
0.00228	-0.0277842	
0.002285	-0.0282222	
0.00229	-0.0286973	
0.002295	-0.0291268	
0.0023	-0.0294584	
0.002305	-0.0297574	
0.00231	-0.0300682	
0.002315	-0.0303721	
0.00232	-0.030657	
0.002325	-0.030916	
0.00233	-0.0311457	
0.002335	-0.0313451	
0.00234	-0.0315627	
0.002345	-0.0318296	
0.00235	-0.0320687	
0.002355	-0.0322308	
0.00236	-0.0323343	
0.002365	-0.0324419	
0.00237	-0.0325946	
0.002375	-0.0327223	
0.00238	-0.0327324	
0.002385	-0.032617	
0.00239	-0.0324717	
0.002395	-0.0323613	
0.0024	-0.032279	
0.002405	-0.0322191	
0.00241	-0.0321294	
0.002415	-0.031929	
0.00242	-0.0316653	
0.002425	-0.0314198	
0.00243	-0.0311504	
0.002435	-0.0308304	
0.00244	-0.0304922	
0.002445	-0.0302055	
0.00245	-0.0300614	
0.002455	-0.0300182	
0.00246	-0.0298534	
0.002465	-0.0294735	
0.00247	-0.029065	
0.002475	-0.0288945	
0.00248	-0.0289841	
0.002485	-0.0290033	
0.00249	-0.0288326	
0.002495	-0.0286397	
0.0025	-0.0284414	
0.002505	-0.0281539	
0.00251	-0.0277735	
0.002515	-0.0273499	
0.00252	-0.0269179	
0.002525	-0.0264532	
0.00253	-0.0259414	
0.002535	-0.0253753	
0.00254	-0.0246099	
0.002545	-0.0235117	
0.00255	-0.0220558	
0.002555	-0.0201002	
0.00256	-0.0174323	
0.002565	-0.0140882	
0.00257	-0.0104088	
0.002575	-0.00668243	
0.00258	-0.00286362	
0.002585	0.00112072	
0.00259	0.00516835	
0.002595	0.00911382	
0.0026	0.0129004	
0.002605	0.0165932	
0.00261	0.0201922	
0.002615	0.0237016	
0.00262	0.0271287	
0.002625	0.0303869	
0.00263	0.0334272	
0.002635	0.0363226	
0.00264	0.0391281	
0.002645	0.0417892	
0.00265	0.0442768	
0.002655	0.0466749	
0.00266	0.0490432	
0.002665	0.0512322	
0.00267	0.0531521	
0.002675	0.0549938	
0.00268	0.0568869	
0.002685	0.0588195	
0.00269	0.0607343	
0.002695	0.0625468	
0.0027	0.0642536	
0.002705	0.065905	
0.00271	0.0674895	
0.002715	0.0690023	
0.00272	0.0704914	
0.002725	0.0719419	
0.00273	0.0733461	
0.002735	0.0747482	
0.00274	0.0761778	
0.002745	0.0776053	
0.00275	0.0789166	
0.002755	0.0800891	
0.00276	0.0810671	
0.002765	0.0817755	
0.00277	0.0824154	
0.002775	0.0831698	
0.00278	0.0840593	
0.002785	0.0850431	
0.00279	0.0860903	
0.002795	0.0872247	
0.0028	0.0884106	
0.002805	0.0895742	
0.00281	0.0906682	
0.002815	0.0916645	
0.00282	0.0925493	
0.002825	0.0933663	
0.00283	0.0941949	
0.002835	0.0950396	
0.00284	0.0958549	
0.002845	0.0966123	
0.00285	0.0972957	
0.002855	0.097898	
0.00286	0.0984183	
0.002865	0.0988599	
0.00287	0.0992288	
0.002875	0.0995322	
0.00288	0.0997782	
0.002885	0.100022	
0.00289	0.100301	
0.002895	0.100542	
0.0029	0.100699	
0.002905	0.100793	
0.00291	0.100841	
0.002915	0.100857	
0.00292	0.100851	
0.002925	0.10083	
0.00293	0.100801	
0.002935	0.10072	
0.00294	0.100562	
0.002945	0.100359	
0.00295	0.100042	
0.002955	0.0995698	
0.00296	0.0990648	
0.002965	0.0986097	
0.00297	0.098209	
0.002975	0.0978632	
0.00298	0.0975698	
0.002985	0.097325	
0.00299	0.0971237	
0.002995	0.0969131	
0.003	0.0966113	
0.003005	0.096216	
0.00301	0.0957779	
0.003015	0.0953322	
0.00302	0.0949026	
0.003025	0.0944564	
0.00303	0.0939252	
0.003035	0.0932682	
0.00304	0.0925116	
0.003045	0.0917728	
0.00305	0.0910806	
0.003055	0.0903568	
0.00306	0.0895988	
0.003065	0.0888543	
0.00307	0.0881062	
0.003075	0.0873436	
0.00308	0.0866075	
0.003085	0.0858287	
0.00309	0.0849635	
0.003095	0.0840822	
0.0031	0.0831844	
0.003105	0.0822707	
0.00311	0.0813898	
0.003115	0.0805721	
0.00312	0.0797872	
0.003125	0.078966	
0.00313	0.0781122	
0.003135	0.0772298	
0.00314	0.0762751	
0.003145	0.0752704	
0.00315	0.0742802	
0.003155	0.073299	
0.00316	0.0722749	
0.003165	0.0712235	
0.00317	0.0702039	
0.003175	0.0692533	
0.00318	0.0683458	
0.003185	0.0674145	
0.00319	0.066464	
0.003195	0.0655459	
0.0032	0.0646924	
0.003205	0.0638745	
0.00321	0.0630236	
0.003215	0.0621437	
0.00322	0.0611912	
0.003225	0.0600933	
0.00323	0.0589514	
0.003235	0.0579296	
0.00324	0.0570353	
0.003245	0.0561248	
0.00325	0.0551516	
0.003255	0.0541356	
0.00326	0.0530918	
0.003265	0.0520791	
0.00327	0.0510872	
0.003275	0.0501085	
0.00328	0.0491847	
0.003285	0.0482933	
0.00329	0.0473704	
0.003295	0.0464228	
0.0033	0.0455037	
0.003305	0.0445993	
0.00331	0.0436524	
0.003315	0.0426747	
0.00332	0.0417229	
0.003325	0.0407857	
0.00333	0.0398074	
0.003335	0.0388006	
0.00334	0.0378228	
0.003345	0.0369103	
0.00335	0.036084	
0.003355	0.035306	
0.00336	0.0345018	
0.003365	0.0336706	
0.00337	0.032861	
0.003375	0.0320565	
0.00338	0.0311506	
0.003385	0.0301258	
0.00339	0.029071	
0.003395	0.0279987	
0.0034	0.0269657	
0.003405	0.026055	
0.00341	0.0252204	
0.003415	0.0243804	
0.00342	0.0234816	
0.003425	0.0225388	
0.00343	0.0216118	
0.003435	0.0207389	
0.00344	0.0199431	
0.003445	0.0192356	
0.00345	0.01862	
0.003455	0.0179988	
0.00346	0.0173084	
0.003465	0.0166525	
0.00347	0.0160504	
0.003475	0.0154171	
0.00348	0.0146982	
0.003485	0.0139093	
0.00349	0.0131115	
0.003495	0.0123456	
0.0035	0.011637	
0.003505	0.0109997	
0.00351	0.0104395	
0.003515	0.00995666	
0.00352	0.00950012	
0.003525	0.00898745	
0.00353	0.00841448	
0.003535	0.00782885	
0.00354	0.00726257	
0.003545	0.0066883	
0.00355	0.0060884	
0.003555	0.00549995	
0.00356	0.00489937	
0.003565	0.00431918	
0.00357	0.00382742	
0.003575	0.00336969	
0.00358	0.00290851	
0.003585	0.00246687	
0.00359	0.002059	
0.003595	0.00169269	
0.0036	0.00141864	
0.003605	0.00126592	
0.00361	0.00115288	
0.003615	0.000976287	
0.00362	0.00067107	
0.003625	0.000247946	
0.00363	-0.000232907	
0.003635	-0.00072908	
0.00364	-0.00121189	
0.003645	-0.00166304	
0.00365	-0.00207199	
0.003655	-0.00243377	
0.00366	-0.00274734	
0.003665	-0.00301429	
0.00367	-0.00323787	
0.003675	-0.00346982	
0.00368	-0.00374385	
0.003685	-0.00398514	
0.00369	-0.00414588	
0.003695	-0.00424591	
0.0037	-0.00434873	
0.003705	-0.00449604	
0.00371	-0.00466573	
0.003715	-0.00484215	
0.00372	-0.00496713	
0.003725	-0.00505227	
0.00373	-0.00515466	
0.003735	-0.00521605	
0.00374	-0.00519996	
0.003745	-0.00513354	
0.00375	-0.00503709	
0.003755	-0.00492539	
0.00376	-0.004904	
0.003765	-0.00503823	
0.00377	-0.00517364	
0.003775	-0.00520837	
0.00378	-0.00517507	
0.003785	-0.00505095	
0.00379	-0.00468267	
0.003795	-0.00393316	
0.0038	-0.0029202	
0.003805	-0.00182898	
0.00381	-0.000642706	
0.003815	0.000740281	
0.00382	0.00228263	
0.003825	0.00385709	
0.00383	0.0054258	
0.003835	0.0070116	
0.00384	0.00862872	
0.003845	0.0104752	
0.00385	0.0129085	
0.003855	0.0159464	
0.00386	0.0193342	
0.003865	0.0228877	
0.00387	0.0264773	
0.003875	0.0300161	
0.00388	0.0334016	
0.003885	0.0365257	
0.00389	0.0393774	
0.003895	0.0420572	
0.0039	0.044687	
0.003905	0.0473021	
0.00391	0.0497838	
0.003915	0.0520601	
0.00392	0.054236	
0.003925	0.0563854	
0.00393	0.0585107	
0.003935	0.0605671	
0.00394	0.0624809	
0.003945	0.0642576	
0.00395	0.0659549	
0.003955	0.0676148	
0.00396	0.0692189	
0.003965	0.0707105	
0.00397	0.0721048	
0.003975	0.0734641	
0.00398	0.074736	
0.003985	0.0758902	
0.00399	0.0770547	
0.003995	0.0782661	
0.004	0.0794985	
0.004005	0.0807817	
0.00401	0.0821327	
0.004015	0.0834645	
0.00402	0.0846731	
0.004025	0.0858384	
0.00403	0.0870151	
0.004035	0.0881437	
0.00404	0.0892346	
0.004045	0.0902968	
0.00405	0.0912897	
0.004055	0.0921899	
0.00406	0.0929865	
0.004065	0.0937246	
0.00407	0.0945319	
0.004075	0.0953941	
0.00408	0.0962042	
0.004085	0.0970367	
0.00409	0.0979396	
0.004095	0.0988464	
0.0041	0.0997127	
0.004105	0.100511	
0.00411	0.101275	
0.004115	0.102028	
0.00412	0.102689	
0.004125	0.103212	
0.00413	0.103619	
0.004135	0.10393	
0.00414	0.104163	
0.004145	0.104334	
0.00415	0.104455	
0.004155	0.104538	
0.00416	0.104593	
0.004165	0.104672	
0.00417	0.104813	
0.004175	0.10494	
0.00418	0.105003	
0.004185	0.105023	
0.00419	0.105012	
0.004195	0.104934	
0.0042	0.104768	
0.004205	0.104552	
0.00421	0.104266	
0.004215	0.103946	
0.00422	0.103715	
0.004225	0.103554	
0.00423	0.103398	
0.004235	0.103254	
0.00424	0.103123	
0.004245	0.103008	
0.00425	0.102862	
0.004255	0.102653	
0.00426	0.102367	
0.004265	0.101804	
0.00427	0.100944	
0.004275	0.100118	
0.00428	0.0994496	
0.004285	0.0988682	
0.00429	0.0983721	
0.004295	0.097908	
0.0043	0.0974396	
0.004305	0.0969903	
0.00431	0.0965275	
0.004315	0.0959826	
0.00432	0.0953617	
0.004325	0.0947201	
0.00433	0.0940477	
0.004335	0.0933392	
0.00434	0.0926404	
0.004345	0.0919336	
0.00435	0.0911599	
0.004355	0.090331	
0.00436	0.0896001	
0.004365	0.0890634	
0.00437	0.0885376	
0.004375	0.0879011	
0.00438	0.0872219	
0.004385	0.0864515	
0.00439	0.0855623	
0.004395	0.0846369	
0.0044	0.0836363	
0.004405	0.0824908	
0.00441	0.081304	
0.004415	0.0801936	
0.00442	0.0790911	
0.004425	0.0779033	
0.00443	0.0766203	
0.004435	0.0752402	
0.00444	0.0738138	
0.004445	0.0724244	
0.00445	0.0711251	
0.004455	0.0700892	
0.00446	0.069371	
0.004465	0.0686587	
0.00447	0.0677938	
0.004475	0.0668691	
0.00448	0.0659013	
0.004485	0.0648557	
0.00449	0.0637132	
0.004495	0.0624658	
0.0045	0.0611607	
0.004505	0.0598792	
0.00451	0.0586265	
0.004515	0.0573568	
0.00452	0.0560885	
0.004525	0.0548811	
0.00453	0.0537235	
0.004535	0.0525583	
0.00454	0.0513481	
0.004545	0.0500705	
0.00455	0.048904	
0.004555	0.0480084	
0.00456	0.0471912	
0.004565	0.0462743	
0.00457	0.0452398	
0.004575	0.0441293	
0.00458	0.0429736	
0.004585	0.0417477	
0.00459	0.040486	
0.004595	0.0392604	
0.0046	0.0380689	
0.004605	0.0368613	
0.00461	0.0356526	
0.004615	0.0345003	
0.00462	0.0333923	
0.004625	0.0322707	
0.00463	0.0310982	
0.004635	0.0298524	
0.00464	0.0285223	
0.004645	0.0272945	
0.00465	0.0263824	
0.004655	0.0255789	
0.00466	0.0246474	
0.004665	0.0235805	
0.00467	0.0224273	
0.004675	0.0212716	
0.00468	0.0201215	
0.004685	0.0189819	
0.00469	0.0178556	
0.004695	0.0166963	
0.0047	0.0155225	
0.004705	0.0143946	
0.00471	0.0133505	
0.004715	0.0123633	
0.00472	0.0113653	
0.004725	0.0103124	
0.00473	0.00917791	
0.004735	0.00804334	
0.00474	0.00720006	
0.004745	0.00673131	
0.00475	0.00629402	
0.004755	0.005708	
0.00476	0.0050041	
0.004765	0.0041607	
0.00477	0.00321767	
0.004775	0.0023011	
0.00478	0.00144533	
0.004785	0.000575039	
0.00479	-0.00031119	
0.004795	-0.00116601	
0.0048	-0.0019597	
0.004805	-0.0027706	
0.00481	-0.00369711	
0.004815	-0.00465602	
0.00482	-0.00554341	
0.004825	-0.0063892	
0.00483	-0.0072151	
0.004835	-0.00813142	
0.00484	-0.00925417	
0.004845	-0.0103648	
0.00485	-0.01132	
0.004855	-0.0122224	
0.00486	-0.0130474	
0.004865	-0.0137349	
0.00487	-0.0143941	
0.004875	-0.0151462	
0.00488	-0.015924	
0.004885	-0.0165868	
0.00489	-0.017095	
0.004895	-0.0175246	
0.0049	-0.0179297	
0.004905	-0.0182995	
0.00491	-0.0186761	
0.004915	-0.0191343	
0.00492	-0.0196723	
0.004925	-0.0202374	
0.00493	-0.0208887	
0.004935	-0.0217087	
0.00494	-0.0225536	
0.004945	-0.0232799	
0.00495	-0.0239411	
0.004955	-0.0245281	
0.00496	-0.024991	
0.004965	-0.0253976	
0.00497	-0.0257955	
0.004975	-0.0261687	
0.00498	-0.0265081	
0.004985	-0.0268091	
0.00499	-0.027118	
0.004995	-0.0274652	
0.005	-0.0277736	
0.005005	-0.0279943	
0.00501	-0.0281467	
0.005015	-0.0282469	
0.00502	-0.0283555	
0.005025	-0.0284645	
0.00503	-0.0284735	
0.005035	-0.0284637	
0.00504	-0.0285846	
0.005045	-0.0288334	
0.00505	-0.0291549	
0.005055	-0.029509	
0.00506	-0.0298203	
0.005065	-0.0299937	
