Time - Plot 0	Amplitude - Plot 0	
0	0.11384	
5E-6	0.113629	
1E-5	0.113344	
1.5E-5	0.113024	
2E-5	0.112649	
2.5E-5	0.112207	
3E-5	0.11179	
3.5E-5	0.111457	
4E-5	0.111146	
4.5E-5	0.110819	
5E-5	0.110495	
5.5E-5	0.110142	
6E-5	0.109691	
6.5E-5	0.109149	
7E-5	0.108573	
7.5E-5	0.108001	
8E-5	0.10746	
8.5E-5	0.106964	
9E-5	0.106522	
9.5E-5	0.106088	
0.0001	0.105585	
0.000105	0.105013	
0.00011	0.104376	
0.000115	0.103629	
0.00012	0.102847	
0.000125	0.102125	
0.00013	0.101429	
0.000135	0.100737	
0.00014	0.100031	
0.000145	0.099256	
0.00015	0.0984233	
0.000155	0.0975924	
0.00016	0.0968019	
0.000165	0.0960279	
0.00017	0.0952063	
0.000175	0.0942971	
0.00018	0.0932781	
0.000185	0.0922349	
0.00019	0.0912727	
0.000195	0.0903617	
0.0002	0.0894326	
0.000205	0.088488	
0.00021	0.0876253	
0.000215	0.0868574	
0.00022	0.0860458	
0.000225	0.0851012	
0.00023	0.0841134	
0.000235	0.083144	
0.00024	0.0821375	
0.000245	0.0811066	
0.00025	0.0800607	
0.000255	0.079007	
0.00026	0.077998	
0.000265	0.0770186	
0.00027	0.076105	
0.000275	0.0753256	
0.00028	0.0745289	
0.000285	0.0736159	
0.00029	0.072717	
0.000295	0.0718698	
0.0003	0.0710017	
0.000305	0.0701134	
0.00031	0.0692062	
0.000315	0.0682344	
0.00032	0.0672185	
0.000325	0.0662215	
0.00033	0.0652366	
0.000335	0.0642112	
0.00034	0.06316	
0.000345	0.0621416	
0.00035	0.0611454	
0.000355	0.0601159	
0.00036	0.0591131	
0.000365	0.058223	
0.00037	0.0574016	
0.000375	0.0566169	
0.00038	0.055846	
0.000385	0.0550255	
0.00039	0.0541637	
0.000395	0.0532678	
0.0004	0.0522967	
0.000405	0.0512745	
0.00041	0.0502669	
0.000415	0.0493166	
0.00042	0.048449	
0.000425	0.0476295	
0.00043	0.0467853	
0.000435	0.0459173	
0.00044	0.0450746	
0.000445	0.0442885	
0.00045	0.0435768	
0.000455	0.0429479	
0.00046	0.0424509	
0.000465	0.0420643	
0.00047	0.0416262	
0.000475	0.0410322	
0.00048	0.0403161	
0.000485	0.0395532	
0.00049	0.0387482	
0.000495	0.0379058	
0.0005	0.0370786	
0.000505	0.0362531	
0.00051	0.0353727	
0.000515	0.0344501	
0.00052	0.0335434	
0.000525	0.03269	
0.00053	0.0318646	
0.000535	0.0310492	
0.00054	0.030279	
0.000545	0.0295749	
0.00055	0.0289477	
0.000555	0.0283059	
0.00056	0.0275897	
0.000565	0.0269059	
0.00057	0.0263233	
0.000575	0.0258349	
0.00058	0.0253844	
0.000585	0.0248849	
0.00059	0.0243293	
0.000595	0.0237629	
0.0006	0.0232163	
0.000605	0.0227085	
0.00061	0.0222028	
0.000615	0.0216748	
0.00062	0.0212048	
0.000625	0.020795	
0.00063	0.020397	
0.000635	0.0200254	
0.00064	0.0196414	
0.000645	0.0192198	
0.00065	0.0186982	
0.000655	0.0180404	
0.00066	0.0173713	
0.000665	0.016774	
0.00067	0.0162999	
0.000675	0.0159769	
0.00068	0.0157688	
0.000685	0.0155988	
0.00069	0.0153669	
0.000695	0.0150576	
0.0007	0.0147119	
0.000705	0.0143586	
0.00071	0.0140169	
0.000715	0.013699	
0.00072	0.013412	
0.000725	0.0131588	
0.00073	0.0129399	
0.000735	0.0127539	
0.00074	0.012551	
0.000745	0.0123464	
0.00075	0.0122456	
0.000755	0.0122178	
0.00076	0.0121921	
0.000765	0.0121689	
0.00077	0.0121485	
0.000775	0.0120833	
0.00078	0.0119442	
0.000785	0.0118104	
0.00079	0.011734	
0.000795	0.0116991	
0.0008	0.0116931	
0.000805	0.0117066	
0.00081	0.0117322	
0.000815	0.0117646	
0.00082	0.0117999	
0.000825	0.0118355	
0.00083	0.0118697	
0.000835	0.0119012	
0.00084	0.0119295	
0.000845	0.0119543	
0.00085	0.0120233	
0.000855	0.0121655	
0.00086	0.0123494	
0.000865	0.0125996	
0.00087	0.0129292	
0.000875	0.0132956	
0.00088	0.0136688	
0.000885	0.014029	
0.00089	0.0143635	
0.000895	0.0146653	
0.0009	0.0149787	
0.000905	0.0153801	
0.00091	0.015868	
0.000915	0.0163423	
0.00092	0.0167378	
0.000925	0.01711	
0.00093	0.0174969	
0.000935	0.0178276	
0.00094	0.0181056	
0.000945	0.0184783	
0.00095	0.018991	
0.000955	0.0196191	
0.00096	0.0202462	
0.000965	0.0206528	
0.00097	0.0208947	
0.000975	0.0212068	
0.00098	0.0217406	
0.000985	0.0225378	
0.00099	0.0235186	
0.000995	0.0246216	
0.001	0.0258955	
0.001005	0.0273646	
0.00101	0.0289879	
0.001015	0.0307787	
0.00102	0.0327378	
0.001025	0.0348104	
0.00103	0.0370023	
0.001035	0.0392643	
0.00104	0.0414656	
0.001045	0.0435702	
0.00105	0.0456066	
0.001055	0.0475967	
0.00106	0.0495574	
0.001065	0.0515009	
0.00107	0.0534363	
0.001075	0.0553223	
0.00108	0.0570865	
0.001085	0.0587346	
0.00109	0.0603231	
0.001095	0.0618924	
0.0011	0.0634223	
0.001105	0.0648538	
0.00111	0.0662003	
0.001115	0.0675222	
0.00112	0.0688128	
0.001125	0.0701168	
0.00113	0.0715106	
0.001135	0.0728977	
0.00114	0.0741672	
0.001145	0.0752991	
0.00115	0.0762868	
0.001155	0.0771802	
0.00116	0.0780642	
0.001165	0.0789478	
0.00117	0.0797894	
0.001175	0.0806109	
0.00118	0.0814754	
0.001185	0.0823749	
0.00119	0.083255	
0.001195	0.0840806	
0.0012	0.0848313	
0.001205	0.085497	
0.00121	0.0860752	
0.001215	0.0865685	
0.00122	0.0870298	
0.001225	0.0874959	
0.00123	0.087943	
0.001235	0.0883565	
0.00124	0.0887283	
0.001245	0.0890549	
0.00125	0.0892889	
0.001255	0.0894031	
0.00126	0.0894329	
0.001265	0.0894057	
0.00127	0.0893423	
0.001275	0.0892578	
0.00128	0.0891636	
0.001285	0.0890673	
0.00129	0.0890218	
0.001295	0.0890595	
0.0013	0.0891027	
0.001305	0.0890999	
0.00131	0.0891145	
0.001315	0.0891398	
0.00132	0.089076	
0.001325	0.0889565	
0.00133	0.0888058	
0.001335	0.0885466	
0.00134	0.0881806	
0.001345	0.0877616	
0.00135	0.0873273	
0.001355	0.0869036	
0.00136	0.0865068	
0.001365	0.0861466	
0.00137	0.0858276	
0.001375	0.0855032	
0.00138	0.0850956	
0.001385	0.0846048	
0.00139	0.08413	
0.001395	0.0837357	
0.0014	0.083318	
0.001405	0.0827621	
0.00141	0.0819987	
0.001415	0.0810396	
0.00142	0.0800443	
0.001425	0.0793099	
0.00143	0.0789724	
0.001435	0.0786749	
0.00144	0.0781326	
0.001445	0.0773595	
0.00145	0.0764708	
0.001455	0.0755954	
0.00146	0.0747226	
0.001465	0.0738454	
0.00147	0.0729592	
0.001475	0.0720138	
0.00148	0.0709792	
0.001485	0.069887	
0.00149	0.0688086	
0.001495	0.0677427	
0.0015	0.066688	
0.001505	0.0656905	
0.00151	0.0647304	
0.001515	0.0637453	
0.00152	0.0625526	
0.001525	0.0610417	
0.00153	0.0594877	
0.001535	0.0581212	
0.00154	0.0569431	
0.001545	0.0558974	
0.00155	0.0548933	
0.001555	0.0539166	
0.00156	0.0530042	
0.001565	0.0521298	
0.00157	0.0512268	
0.001575	0.0503	
0.00158	0.0493539	
0.001585	0.0483447	
0.00159	0.0472941	
0.001595	0.0462659	
0.0016	0.0452536	
0.001605	0.0442046	
0.00161	0.0431334	
0.001615	0.0420507	
0.00162	0.0409167	
0.001625	0.0397548	
0.00163	0.0386295	
0.001635	0.0375341	
0.00164	0.0364151	
0.001645	0.0352859	
0.00165	0.0341559	
0.001655	0.0330313	
0.00166	0.0319634	
0.001665	0.0309359	
0.00167	0.029936	
0.001675	0.0289542	
0.00168	0.0279356	
0.001685	0.0268934	
0.00169	0.025885	
0.001695	0.0249465	
0.0017	0.024051	
0.001705	0.0231786	
0.00171	0.0223627	
0.001715	0.0215752	
0.00172	0.0207485	
0.001725	0.01984	
0.00173	0.0188731	
0.001735	0.0179133	
0.00174	0.0169561	
0.001745	0.0159508	
0.00175	0.0149138	
0.001755	0.0138575	
0.00176	0.0127907	
0.001765	0.0117676	
0.00177	0.0107742	
0.001775	0.00979967	
0.00178	0.00888379	
0.001785	0.00804986	
0.00179	0.00726189	
0.001795	0.0064464	
0.0018	0.00560382	
0.001805	0.00478322	
0.00181	0.00401593	
0.001815	0.00327254	
0.00182	0.002485	
0.001825	0.00165807	
0.00183	0.000844272	
0.001835	7.76265E-5	
0.00184	-0.000621669	
0.001845	-0.00124348	
0.00185	-0.00183234	
0.001855	-0.00246667	
0.00186	-0.00314853	
0.001865	-0.00392455	
0.00187	-0.00486855	
0.001875	-0.00587866	
0.00188	-0.00683704	
0.001885	-0.00776353	
0.00189	-0.0086727	
0.001895	-0.00947992	
0.0019	-0.0102293	
0.001905	-0.0110476	
0.00191	-0.0118728	
0.001915	-0.0126159	
0.00192	-0.0132697	
0.001925	-0.0138337	
0.00193	-0.0143118	
0.001935	-0.0147583	
0.00194	-0.0152102	
0.001945	-0.0156445	
0.00195	-0.016094	
0.001955	-0.0165799	
0.00196	-0.0170193	
0.001965	-0.0173596	
0.00197	-0.0176661	
0.001975	-0.0180309	
0.00198	-0.0184644	
0.001985	-0.0189226	
0.00199	-0.0194231	
0.001995	-0.0199752	
0.002	-0.0205354	
0.002005	-0.0210743	
0.00201	-0.0216212	
0.002015	-0.0222426	
0.00202	-0.0229313	
0.002025	-0.0236318	
0.00203	-0.024307	
0.002035	-0.0249334	
0.00204	-0.0254982	
0.002045	-0.0259955	
0.00205	-0.0264249	
0.002055	-0.0269793	
0.00206	-0.0277801	
0.002065	-0.0285152	
0.00207	-0.0289823	
0.002075	-0.0292504	
0.00208	-0.0293747	
0.002085	-0.0293983	
0.00209	-0.0293544	
0.002095	-0.0293155	
0.0021	-0.0293294	
0.002105	-0.0293299	
0.00211	-0.029274	
0.002115	-0.0291835	
0.00212	-0.0291221	
0.002125	-0.0291777	
0.00213	-0.0293555	
0.002135	-0.0296055	
0.00214	-0.0298911	
0.002145	-0.0301393	
0.00215	-0.0302083	
0.002155	-0.030061	
0.00216	-0.0298731	
0.002165	-0.0297623	
0.00217	-0.0296601	
0.002175	-0.0295208	
0.00218	-0.0294113	
0.002185	-0.0294215	
0.00219	-0.0295103	
0.002195	-0.0295516	
0.0022	-0.0295597	
0.002205	-0.0295929	
0.00221	-0.0295937	
0.002215	-0.0295255	
0.00222	-0.029415	
0.002225	-0.0292819	
0.00223	-0.0291402	
0.002235	-0.0289994	
0.00224	-0.028866	
0.002245	-0.0287438	
0.00225	-0.0286346	
0.002255	-0.0285393	
0.00226	-0.0284576	
0.002265	-0.0283412	
0.00227	-0.0281599	
0.002275	-0.0279444	
0.00228	-0.0277165	
0.002285	-0.0274913	
0.00229	-0.0272308	
0.002295	-0.0268645	
0.0023	-0.0263506	
0.002305	-0.0257161	
0.00231	-0.0249846	
0.002315	-0.0241287	
0.00232	-0.0231362	
0.002325	-0.0219579	
0.00233	-0.0205703	
0.002335	-0.0190152	
0.00234	-0.0173756	
0.002345	-0.015758	
0.00235	-0.0141363	
0.002355	-0.0122083	
0.00236	-0.00964656	
0.002365	-0.00655056	
0.00237	-0.00320117	
0.002375	0.000251956	
0.00238	0.00365768	
0.002385	0.00691861	
0.00239	0.0100724	
0.002395	0.0131491	
0.0024	0.0160769	
0.002405	0.018768	
0.00241	0.0212234	
0.002415	0.0235498	
0.00242	0.0257762	
0.002425	0.0278313	
0.00243	0.0297239	
0.002435	0.0315623	
0.00244	0.0334208	
0.002445	0.0352045	
0.00245	0.036807	
0.002455	0.0382143	
0.00246	0.0394739	
0.002465	0.0406715	
0.00247	0.0418667	
0.002475	0.0430513	
0.00248	0.0441729	
0.002485	0.0452475	
0.00249	0.0462877	
0.002495	0.0472561	
0.0025	0.0481314	
0.002505	0.0489038	
0.00251	0.0495719	
0.002515	0.0501871	
0.00252	0.0508335	
0.002525	0.0515174	
0.00253	0.0522411	
0.002535	0.0530045	
0.00254	0.0537579	
0.002545	0.0545166	
0.00255	0.0552904	
0.002555	0.0560377	
0.00256	0.0567321	
0.002565	0.0573587	
0.00257	0.0579111	
0.002575	0.0584359	
0.00258	0.0589652	
0.002585	0.0594725	
0.00259	0.0599412	
0.002595	0.0603624	
0.0026	0.0607799	
0.002605	0.0612226	
0.00261	0.0616611	
0.002615	0.0620761	
0.00262	0.0624083	
0.002625	0.0625753	
0.00263	0.0626254	
0.002635	0.0627386	
0.00264	0.0629832	
0.002645	0.0632554	
0.00265	0.0634852	
0.002655	0.0637239	
0.00266	0.063957	
0.002665	0.0640805	
0.00267	0.0641257	
0.002675	0.0641648	
0.00268	0.064198	
0.002685	0.0642258	
0.00269	0.0642011	
0.002695	0.0640954	
0.0027	0.0639414	
0.002705	0.0637152	
0.00271	0.0634521	
0.002715	0.0632247	
0.00272	0.0629365	
0.002725	0.0625744	
0.00273	0.0622756	
0.002735	0.0619852	
0.00274	0.0616191	
0.002745	0.0612678	
0.00275	0.0609905	
0.002755	0.06068	
0.00276	0.0602197	
0.002765	0.0596824	
0.00277	0.0591673	
0.002775	0.0586911	
0.00278	0.0582632	
0.002785	0.0578398	
0.00279	0.0573443	
0.002795	0.0567772	
0.0028	0.0561897	
0.002805	0.0556165	
0.00281	0.0550324	
0.002815	0.054326	
0.00282	0.0534774	
0.002825	0.0526227	
0.00283	0.0518519	
0.002835	0.0511254	
0.00284	0.0504149	
0.002845	0.0497485	
0.00285	0.0490953	
0.002855	0.048434	
0.00286	0.0477512	
0.002865	0.0469915	
0.00287	0.0461693	
0.002875	0.045345	
0.00288	0.0445106	
0.002885	0.0436141	
0.00289	0.0426713	
0.002895	0.0417428	
0.0029	0.0408675	
0.002905	0.0400212	
0.00291	0.0391389	
0.002915	0.0382271	
0.00292	0.0373391	
0.002925	0.0365086	
0.00293	0.0357078	
0.002935	0.0348695	
0.00294	0.0339985	
0.002945	0.0331471	
0.00295	0.0323015	
0.002955	0.0314045	
0.00296	0.030421	
0.002965	0.029332	
0.00297	0.0281773	
0.002975	0.027034	
0.00298	0.0259522	
0.002985	0.0249621	
0.00299	0.0240319	
0.002995	0.02309	
0.003	0.0221374	
0.003005	0.0212228	
0.00301	0.0203766	
0.003015	0.0195679	
0.00302	0.0187747	
0.003025	0.0180292	
0.00303	0.0173028	
0.003035	0.0165284	
0.00304	0.0156639	
0.003045	0.0147333	
0.00305	0.0138032	
0.003055	0.0129173	
0.00306	0.0121025	
0.003065	0.0113732	
0.00307	0.0106871	
0.003075	0.00996695	
0.00308	0.00921085	
0.003085	0.00841928	
0.00309	0.00754668	
0.003095	0.0066144	
0.0031	0.00568686	
0.003105	0.00480632	
0.00311	0.00399841	
0.003115	0.00322907	
0.00312	0.00247401	
0.003125	0.00176409	
0.00313	0.00106996	
0.003135	0.00037154	
0.00314	-0.000296671	
0.003145	-0.000960897	
0.00315	-0.00163861	
0.003155	-0.00229317	
0.00316	-0.00294904	
0.003165	-0.00362227	
0.00317	-0.00427513	
0.003175	-0.0049312	
0.00318	-0.00565343	
0.003185	-0.00638512	
0.00319	-0.00704091	
0.003195	-0.00766317	
0.0032	-0.00828143	
0.003205	-0.00891534	
0.00321	-0.00957712	
0.003215	-0.010226	
0.00322	-0.0108356	
0.003225	-0.0113906	
0.00323	-0.0119308	
0.003235	-0.0125308	
0.00324	-0.0131893	
0.003245	-0.0138553	
0.00325	-0.0145423	
0.003255	-0.0152582	
0.00326	-0.0159117	
0.003265	-0.0164456	
0.00327	-0.016923	
0.003275	-0.017388	
0.00328	-0.0178229	
0.003285	-0.0182174	
0.00329	-0.0186141	
0.003295	-0.0190886	
0.0033	-0.0196394	
0.003305	-0.020167	
0.00331	-0.0206068	
0.003315	-0.0210155	
0.00332	-0.0214793	
0.003325	-0.0220051	
0.00333	-0.022547	
0.003335	-0.0231212	
0.00334	-0.0237373	
0.003345	-0.0243518	
0.00335	-0.0249361	
0.003355	-0.0254254	
0.00336	-0.0257814	
0.003365	-0.0262703	
0.00337	-0.0270614	
0.003375	-0.0278242	
0.00338	-0.0283422	
0.003385	-0.0286741	
0.00339	-0.0288678	
0.003395	-0.0289611	
0.0034	-0.0289838	
0.003405	-0.0290064	
0.00341	-0.029123	
0.003415	-0.029296	
0.00342	-0.029403	
0.003425	-0.0294138	
0.00343	-0.0293607	
0.003435	-0.0293156	
0.00344	-0.0293253	
0.003445	-0.0293707	
0.00345	-0.0294376	
0.003455	-0.0294679	
0.00346	-0.0292825	
0.003465	-0.0288685	
0.00347	-0.0285137	
0.003475	-0.0283096	
0.00348	-0.028167	
0.003485	-0.0280718	
0.00349	-0.0280122	
0.003495	-0.0281217	
0.0035	-0.0284799	
0.003505	-0.0288427	
0.00351	-0.0290487	
0.003515	-0.0291891	
0.00352	-0.0293272	
0.003525	-0.0294096	
0.00353	-0.0293564	
0.003535	-0.0291688	
0.00354	-0.0289489	
0.003545	-0.0287657	
0.00355	-0.0286154	
0.003555	-0.0283512	
0.00356	-0.0278818	
0.003565	-0.0273944	
0.00357	-0.0269658	
0.003575	-0.0265486	
0.00358	-0.0261587	
0.003585	-0.0257577	
0.00359	-0.0252257	
0.003595	-0.0245374	
0.0036	-0.0238738	
0.003605	-0.0233528	
0.00361	-0.022903	
0.003615	-0.0224739	
0.00362	-0.0220312	
0.003625	-0.0215529	
0.00363	-0.0210262	
0.003635	-0.02035	
0.00364	-0.019417	
0.003645	-0.0181686	
0.00365	-0.0163911	
0.003655	-0.0138259	
0.00366	-0.010625	
0.003665	-0.00706124	
0.00367	-0.00323668	
0.003675	0.000721561	
0.00368	0.0046758	
0.003685	0.00853544	
0.00369	0.0122452	
0.003695	0.0158234	
0.0037	0.019288	
0.003705	0.0226567	
0.00371	0.0259928	
0.003715	0.0292447	
0.00372	0.0323349	
0.003725	0.0353148	
0.00373	0.0382238	
0.003735	0.0410434	
0.00374	0.0437658	
0.003745	0.0464855	
0.00375	0.0493125	
0.003755	0.052124	
0.00376	0.0547924	
0.003765	0.0573352	
0.00377	0.0597225	
0.003775	0.0618944	
0.00378	0.0639165	
0.003785	0.065887	
0.00379	0.0677301	
0.003795	0.0694021	
0.0038	0.0709772	
0.003805	0.0725091	
0.00381	0.074035	
0.003815	0.0755324	
0.00382	0.0769402	
0.003825	0.0782698	
0.00383	0.0795801	
0.003835	0.0809107	
0.00384	0.0822393	
0.003845	0.0835513	
0.00385	0.0848854	
0.003855	0.0862185	
0.00386	0.0875353	
0.003865	0.0888268	
0.00387	0.0900879	
0.003875	0.0913645	
0.00388	0.0926384	
0.003885	0.0938503	
0.00389	0.094964	
0.003895	0.0960078	
0.0039	0.0970512	
0.003905	0.0980926	
0.00391	0.0990833	
0.003915	0.0999938	
0.00392	0.100808	
0.003925	0.101521	
0.00393	0.102133	
0.003935	0.102697	
0.00394	0.103298	
0.003945	0.103942	
0.00395	0.104584	
0.003955	0.105195	
0.00396	0.105756	
0.003965	0.106258	
0.00397	0.106744	
0.003975	0.107245	
0.00398	0.107684	
0.003985	0.108014	
0.00399	0.108257	
0.003995	0.108431	
0.004	0.10855	
0.004005	0.108676	
0.00401	0.108848	
0.004015	0.109042	
0.00402	0.109289	
0.004025	0.109559	
0.00403	0.109784	
0.004035	0.109969	
0.00404	0.110071	
0.004045	0.110018	
0.00405	0.109819	
0.004055	0.109579	
0.00406	0.109325	
0.004065	0.108977	
0.00407	0.108538	
0.004075	0.108058	
0.00408	0.107574	
0.004085	0.107111	
0.00409	0.106683	
0.004095	0.106251	
0.0041	0.105742	
0.004105	0.105159	
0.00411	0.104554	
0.004115	0.103963	
0.00412	0.10341	
0.004125	0.102861	
0.00413	0.102244	
0.004135	0.101565	
0.00414	0.100877	
0.004145	0.100215	
0.00415	0.0996026	
0.004155	0.0990035	
0.00416	0.0983941	
0.004165	0.0978069	
0.00417	0.0972144	
0.004175	0.096599	
0.00418	0.0959501	
0.004185	0.0952146	
0.00419	0.0944094	
0.004195	0.0935962	
0.0042	0.0928163	
0.004205	0.0920477	
0.00421	0.0912277	
0.004215	0.0903652	
0.00422	0.0895154	
0.004225	0.0887142	
0.00423	0.0879829	
0.004235	0.0872848	
0.00424	0.0865465	
0.004245	0.0857216	
0.00425	0.084831	
0.004255	0.0839392	
0.00426	0.0830413	
0.004265	0.0820868	
0.00427	0.0810926	
0.004275	0.0801191	
0.00428	0.0791579	
0.004285	0.0781552	
0.00429	0.077125	
0.004295	0.0761253	
0.0043	0.0751456	
0.004305	0.0741303	
0.00431	0.0730445	
0.004315	0.071916	
0.00432	0.0708127	
0.004325	0.0697307	
0.00433	0.0686664	
0.004335	0.0676641	
0.00434	0.0667025	
0.004345	0.0657658	
0.00435	0.0648897	
0.004355	0.064095	
0.00436	0.0633441	
0.004365	0.0625625	
0.00437	0.0617501	
0.004375	0.0609557	
0.00438	0.0601634	
0.004385	0.0593623	
0.00439	0.0585933	
0.004395	0.0578343	
0.0044	0.0570703	
0.004405	0.0562915	
0.00441	0.0554448	
0.004415	0.0545459	
0.00442	0.053655	
0.004425	0.0528115	
0.00443	0.0520392	
0.004435	0.0513028	
0.00444	0.0505298	
0.004445	0.0497218	
0.00445	0.0488813	
0.004455	0.0480117	
0.00446	0.0471639	
0.004465	0.0463232	
0.00447	0.0454793	
0.004475	0.0446257	
0.00448	0.0437585	
0.004485	0.0429709	
0.00449	0.0422731	
0.004495	0.0415724	
0.0045	0.0408554	
0.004505	0.040114	
0.00451	0.0392965	
0.004515	0.0384201	
0.00452	0.0375461	
0.004525	0.0367151	
0.00453	0.0359043	
0.004535	0.0350976	
0.00454	0.0343317	
0.004545	0.0335814	
0.00455	0.0328294	
0.004555	0.0321118	
0.00456	0.0314508	
0.004565	0.0308585	
0.00457	0.0302918	
0.004575	0.0297214	
0.00458	0.0291754	
0.004585	0.0286239	
0.00459	0.0280473	
0.004595	0.0274814	
0.0046	0.0269493	
0.004605	0.0264171	
0.00461	0.025815	
0.004615	0.0251477	
0.00462	0.0244691	
0.004625	0.023815	
0.00463	0.023208	
0.004635	0.0226608	
0.00464	0.0221789	
0.004645	0.0217154	
0.00465	0.0212383	
0.004655	0.0207748	
0.00466	0.0202947	
0.004665	0.0198264	
0.00467	0.0194355	
0.004675	0.0191142	
0.00468	0.0188539	
0.004685	0.0185986	
0.00469	0.0183112	
0.004695	0.0179686	
0.0047	0.0175584	
0.004705	0.0171229	
0.00471	0.0165964	
0.004715	0.0159396	
0.00472	0.0152755	
0.004725	0.0146856	
0.00473	0.0141724	
0.004735	0.0137342	
0.00474	0.0133661	
0.004745	0.0130616	
0.00475	0.0128135	
0.004755	0.0126143	
0.00476	0.0124567	
0.004765	0.0123341	
0.00477	0.0123829	
0.004775	0.012685	
0.00478	0.0129973	
0.004785	0.0131589	
0.00479	0.0132134	
0.004795	0.0131949	
0.0048	0.013129	
0.004805	0.0128448	
0.00481	0.0121926	
0.004815	0.011471	
0.00482	0.0109281	
0.004825	0.0105286	
0.00483	0.0102901	
0.004835	0.0102166	
0.00484	0.0102553	
0.004845	0.0103662	
0.00485	0.0105194	
0.004855	0.0106934	
0.00486	0.0108252	
0.004865	0.0108279	
0.00487	0.0107453	
0.004875	0.0107056	
0.00488	0.0107435	
0.004885	0.0108307	
0.00489	0.0109464	
0.004895	0.0111229	
0.0049	0.0112836	
0.004905	0.0113312	
0.00491	0.0114446	
0.004915	0.0117387	
0.00492	0.0121379	
0.004925	0.0125876	
0.00493	0.0130493	
0.004935	0.0134971	
0.00494	0.0139145	
0.004945	0.0143397	
0.00495	0.0147975	
0.004955	0.0152551	
0.00496	0.0156909	
0.004965	0.0160917	
0.00497	0.0165456	
0.004975	0.0171081	
0.00498	0.0177156	
0.004985	0.0183715	
0.00499	0.0191234	
0.004995	0.0200457	
0.005	0.0211793	
0.005005	0.0224937	
0.00501	0.0239601	
0.005015	0.0255526	
0.00502	0.0272478	
0.005025	0.0290258	
0.00503	0.0308692	
0.005035	0.0328113	
0.00504	0.0348691	
0.005045	0.037001	
0.00505	0.0392235	
0.005055	0.0414957	
0.00506	0.0436931	
0.005065	0.045785	
0.00507	0.0478508	
0.005075	0.0499444	
0.00508	0.0520523	
0.005085	0.0541651	
0.00509	0.0562287	
0.005095	0.0582097	
0.0051	0.0601377	
0.005105	0.0620347	
0.00511	0.0639164	
0.005115	0.0657468	
