Time - Plot 0	Amplitude - Plot 0	
0	0.0450396	
5E-6	0.0471347	
1E-5	0.0492815	
1.5E-5	0.0514558	
2E-5	0.0536406	
2.5E-5	0.0557765	
3E-5	0.057779	
3.5E-5	0.0596465	
4E-5	0.0613842	
4.5E-5	0.0629541	
5E-5	0.0643866	
5.5E-5	0.0657558	
6E-5	0.0671137	
6.5E-5	0.0684474	
7E-5	0.0697495	
7.5E-5	0.0710644	
8E-5	0.0724205	
8.5E-5	0.0738348	
9E-5	0.0752681	
9.5E-5	0.076646	
0.0001	0.0779699	
0.000105	0.079243	
0.00011	0.080375	
0.000115	0.0813603	
0.00012	0.0822973	
0.000125	0.0832058	
0.00013	0.0840525	
0.000135	0.0847708	
0.00014	0.0853706	
0.000145	0.0860064	
0.00015	0.0866834	
0.000155	0.087308	
0.00016	0.0879161	
0.000165	0.0885321	
0.00017	0.0891241	
0.000175	0.0896249	
0.00018	0.0899941	
0.000185	0.0903068	
0.00019	0.0906149	
0.000195	0.090953	
0.0002	0.0913899	
0.000205	0.0919188	
0.00021	0.0924834	
0.000215	0.0930448	
0.00022	0.09353	
0.000225	0.0938945	
0.00023	0.0942097	
0.000235	0.094525	
0.00024	0.0948255	
0.000245	0.095102	
0.00025	0.0953496	
0.000255	0.0955664	
0.00026	0.0957527	
0.000265	0.0959101	
0.00027	0.0960409	
0.000275	0.096148	
0.00028	0.0962345	
0.000285	0.0963032	
0.00029	0.096357	
0.000295	0.0963509	
0.0003	0.0962104	
0.000305	0.0959406	
0.00031	0.0956457	
0.000315	0.0953957	
0.00032	0.0951397	
0.000325	0.0948443	
0.00033	0.0944893	
0.000335	0.0939692	
0.00034	0.0933174	
0.000345	0.0927521	
0.00035	0.0923181	
0.000355	0.0919437	
0.00036	0.0916263	
0.000365	0.091314	
0.00037	0.0909722	
0.000375	0.0906272	
0.00038	0.0902489	
0.000385	0.0897713	
0.00039	0.0892035	
0.000395	0.0886029	
0.0004	0.0879617	
0.000405	0.0872289	
0.00041	0.0864228	
0.000415	0.085559	
0.00042	0.0846029	
0.000425	0.0835837	
0.00043	0.0826662	
0.000435	0.0819541	
0.00044	0.0812686	
0.000445	0.0804429	
0.00045	0.0795162	
0.000455	0.0785193	
0.00046	0.0774757	
0.000465	0.0764507	
0.00047	0.0754388	
0.000475	0.0743884	
0.00048	0.0732673	
0.000485	0.0721049	
0.00049	0.0707803	
0.000495	0.0691736	
0.0005	0.067552	
0.000505	0.0661399	
0.00051	0.0648851	
0.000515	0.0636984	
0.00052	0.0625176	
0.000525	0.061349	
0.00053	0.0602913	
0.000535	0.0593092	
0.00054	0.0582808	
0.000545	0.0572229	
0.00055	0.0561481	
0.000555	0.0550655	
0.00056	0.0540289	
0.000565	0.0530241	
0.00057	0.0519928	
0.000575	0.0508977	
0.00058	0.0497173	
0.000585	0.0485839	
0.00059	0.0475828	
0.000595	0.046526	
0.0006	0.0452924	
0.000605	0.0439055	
0.00061	0.042483	
0.000615	0.041152	
0.00062	0.0399442	
0.000625	0.0388273	
0.00063	0.037728	
0.000635	0.0366448	
0.00064	0.0355759	
0.000645	0.0344719	
0.00065	0.033302	
0.000655	0.0320488	
0.00066	0.0307049	
0.000665	0.0293173	
0.00067	0.0279664	
0.000675	0.0266562	
0.00068	0.0254346	
0.000685	0.024377	
0.00069	0.0233347	
0.000695	0.0222093	
0.0007	0.0210824	
0.000705	0.0199601	
0.00071	0.0188465	
0.000715	0.0176962	
0.00072	0.0164811	
0.000725	0.0153282	
0.00073	0.0142234	
0.000735	0.0131074	
0.00074	0.0120368	
0.000745	0.0109993	
0.00075	0.00993758	
0.000755	0.00881506	
0.00076	0.00765801	
0.000765	0.0065329	
0.00077	0.00543455	
0.000775	0.00412057	
0.00078	0.00248888	
0.000785	0.000915042	
0.00079	-0.000403615	
0.000795	-0.00153919	
0.0008	-0.00250033	
0.000805	-0.00334854	
0.00081	-0.00422478	
0.000815	-0.00517312	
0.00082	-0.00607662	
0.000825	-0.00690781	
0.00083	-0.00774709	
0.000835	-0.00864707	
0.00084	-0.00959205	
0.000845	-0.010522	
0.00085	-0.0113981	
0.000855	-0.0121971	
0.00086	-0.0129552	
0.000865	-0.0137455	
0.00087	-0.0145671	
0.000875	-0.0153705	
0.00088	-0.0161715	
0.000885	-0.0169806	
0.00089	-0.0177567	
0.000895	-0.0184743	
0.0009	-0.0191194	
0.000905	-0.0197338	
0.00091	-0.0203464	
0.000915	-0.0209763	
0.00092	-0.0217305	
0.000925	-0.0225785	
0.00093	-0.0233532	
0.000935	-0.0240429	
0.00094	-0.0246914	
0.000945	-0.0252822	
0.00095	-0.0258544	
0.000955	-0.0264825	
0.00096	-0.0271652	
0.000965	-0.0279466	
0.00097	-0.0288514	
0.000975	-0.0296995	
0.00098	-0.0303751	
0.000985	-0.0309525	
0.00099	-0.031533	
0.000995	-0.0320881	
0.001	-0.0325526	
0.001005	-0.0329829	
0.00101	-0.0334179	
0.001015	-0.0338354	
0.00102	-0.0342216	
0.001025	-0.0345689	
0.00103	-0.0349217	
0.001035	-0.0353565	
0.00104	-0.0358722	
0.001045	-0.0364171	
0.00105	-0.0369553	
0.001055	-0.0374637	
0.00106	-0.0379759	
0.001065	-0.0385139	
0.00107	-0.038996	
0.001075	-0.0393708	
0.00108	-0.0396572	
0.001085	-0.0398718	
0.00109	-0.0400289	
0.001095	-0.0401881	
0.0011	-0.0403887	
0.001105	-0.0405597	
0.00111	-0.0406555	
0.001115	-0.0406971	
0.00112	-0.0407011	
0.001125	-0.0407276	
0.00113	-0.0408153	
0.001135	-0.0408915	
0.00114	-0.0409092	
0.001145	-0.0408873	
0.00115	-0.0408404	
0.001155	-0.0408268	
0.00116	-0.0408833	
0.001165	-0.0409358	
0.00117	-0.0409357	
0.001175	-0.0409008	
0.00118	-0.0408448	
0.001185	-0.0407774	
0.00119	-0.0407532	
0.001195	-0.0408062	
0.0012	-0.0408125	
0.001205	-0.0406927	
0.00121	-0.0405429	
0.001215	-0.040428	
0.00122	-0.0402939	
0.001225	-0.0400585	
0.00123	-0.0396724	
0.001235	-0.0390625	
0.00124	-0.0381914	
0.001245	-0.0370941	
0.00125	-0.0355193	
0.001255	-0.0330862	
0.00126	-0.029917	
0.001265	-0.0263174	
0.00127	-0.0224616	
0.001275	-0.0185717	
0.00128	-0.0147482	
0.001285	-0.0109593	
0.00129	-0.00722967	
0.001295	-0.00366807	
0.0013	-0.00033816	
0.001305	0.00277656	
0.00131	0.00564961	
0.001315	0.00827497	
0.00132	0.0107554	
0.001325	0.0131657	
0.00133	0.0154631	
0.001335	0.0176251	
0.00134	0.0196905	
0.001345	0.0215947	
0.00135	0.0232548	
0.001355	0.0247707	
0.00136	0.0262623	
0.001365	0.0277149	
0.00137	0.0291206	
0.001375	0.030524	
0.00138	0.0319546	
0.001385	0.0334304	
0.00139	0.0349139	
0.001395	0.0363798	
0.0014	0.0378598	
0.001405	0.0393266	
0.00141	0.0407154	
0.001415	0.0420346	
0.00142	0.0433405	
0.001425	0.0446235	
0.00143	0.0458307	
0.001435	0.0469784	
0.00144	0.0481751	
0.001445	0.0494426	
0.00145	0.0506493	
0.001455	0.0517114	
0.00146	0.0526753	
0.001465	0.053624	
0.00147	0.0545654	
0.001475	0.0554574	
0.00148	0.0563222	
0.001485	0.0571756	
0.00149	0.0579813	
0.001495	0.0587648	
0.0015	0.0595443	
0.001505	0.0602842	
0.00151	0.060963	
0.001515	0.0615694	
0.00152	0.0620994	
0.001525	0.0626015	
0.00153	0.063109	
0.001535	0.0635485	
0.00154	0.0639224	
0.001545	0.0643304	
0.00155	0.0647891	
0.001555	0.0652596	
0.00156	0.0657156	
0.001565	0.0661405	
0.00157	0.0665247	
0.001575	0.066864	
0.00158	0.0671576	
0.001585	0.0674072	
0.00159	0.067616	
0.001595	0.0677879	
0.0016	0.0679751	
0.001605	0.0682109	
0.00161	0.06842	
0.001615	0.0685543	
0.00162	0.0686802	
0.001625	0.0688899	
0.00163	0.0691924	
0.001635	0.0694941	
0.00164	0.0697337	
0.001645	0.0699209	
0.00165	0.0700171	
0.001655	0.0700014	
0.00166	0.0699125	
0.001665	0.0697796	
0.00167	0.0696239	
0.001675	0.0694607	
0.00168	0.0693001	
0.001685	0.0691013	
0.00169	0.0688393	
0.001695	0.0685479	
0.0017	0.068251	
0.001705	0.0679644	
0.00171	0.0676507	
0.001715	0.0672864	
0.00172	0.0668585	
0.001725	0.0663137	
0.00173	0.0656701	
0.001735	0.0650394	
0.00174	0.0644946	
0.001745	0.0639845	
0.00175	0.063474	
0.001755	0.0629874	
0.00176	0.0625395	
0.001765	0.0620908	
0.00177	0.0615677	
0.001775	0.0609728	
0.00178	0.0603586	
0.001785	0.0597133	
0.00179	0.0589829	
0.001795	0.0581834	
0.0018	0.0573761	
0.001805	0.0565544	
0.00181	0.055667	
0.001815	0.0547306	
0.00182	0.0537588	
0.001825	0.0527144	
0.00183	0.0516241	
0.001835	0.0505551	
0.00184	0.0495031	
0.001845	0.0484171	
0.00185	0.0473124	
0.001855	0.0462477	
0.00186	0.0452597	
0.001865	0.0443214	
0.00187	0.0434129	
0.001875	0.0425668	
0.00188	0.0417545	
0.001885	0.0409077	
0.00189	0.0399832	
0.001895	0.0390037	
0.0019	0.0379867	
0.001905	0.0369455	
0.00191	0.0359376	
0.001915	0.0349518	
0.00192	0.0339797	
0.001925	0.0330626	
0.00193	0.0322251	
0.001935	0.0314322	
0.00194	0.0306111	
0.001945	0.0297627	
0.00195	0.0289365	
0.001955	0.0281164	
0.00196	0.0272441	
0.001965	0.0263311	
0.00197	0.0253868	
0.001975	0.0243716	
0.00198	0.0233101	
0.001985	0.0222683	
0.00199	0.0212886	
0.001995	0.0203489	
0.002	0.0193847	
0.002005	0.0184026	
0.00201	0.0174076	
0.002015	0.0163559	
0.00202	0.0152693	
0.002025	0.0142108	
0.00203	0.0132211	
0.002035	0.012276	
0.00204	0.0113099	
0.002045	0.0103281	
0.00205	0.00938237	
0.002055	0.00845767	
0.00206	0.00749549	
0.002065	0.00650656	
0.00207	0.00554677	
0.002075	0.00460406	
0.00208	0.00362212	
0.002085	0.00261322	
0.00209	0.00163427	
0.002095	0.000673837	
0.0021	-0.00032404	
0.002105	-0.00134694	
0.00211	-0.00233796	
0.002115	-0.00326108	
0.00212	-0.00409578	
0.002125	-0.00488023	
0.00213	-0.00568951	
0.002135	-0.00657197	
0.00214	-0.00750847	
0.002145	-0.00843631	
0.00215	-0.00936208	
0.002155	-0.0102902	
0.00216	-0.0111761	
0.002165	-0.0119921	
0.00217	-0.0127235	
0.002175	-0.0133646	
0.00218	-0.0139157	
0.002185	-0.014429	
0.00219	-0.0149881	
0.002195	-0.0155986	
0.0022	-0.0162616	
0.002205	-0.0170229	
0.00221	-0.0178605	
0.002215	-0.0187565	
0.00222	-0.019696	
0.002225	-0.0205247	
0.00223	-0.0211462	
0.002235	-0.021649	
0.00224	-0.022145	
0.002245	-0.0227081	
0.00225	-0.0232888	
0.002255	-0.0238061	
0.00226	-0.0243046	
0.002265	-0.0248148	
0.00227	-0.0253085	
0.002275	-0.0257204	
0.00228	-0.0260589	
0.002285	-0.0264757	
0.00229	-0.0270193	
0.002295	-0.027621	
0.0023	-0.0281849	
0.002305	-0.0286496	
0.00231	-0.0290271	
0.002315	-0.0293766	
0.00232	-0.0297863	
0.002325	-0.0302638	
0.00233	-0.030811	
0.002335	-0.0314258	
0.00234	-0.032056	
0.002345	-0.0326666	
0.00235	-0.0332355	
0.002355	-0.0337974	
0.00236	-0.0343757	
0.002365	-0.0349374	
0.00237	-0.0354617	
0.002375	-0.0358889	
0.00238	-0.0361844	
0.002385	-0.0364266	
0.00239	-0.0367173	
0.002395	-0.0370737	
0.0024	-0.0374567	
0.002405	-0.0377914	
0.00241	-0.038031	
0.002415	-0.0381966	
0.00242	-0.0383055	
0.002425	-0.0384194	
0.00243	-0.0385312	
0.002435	-0.0385889	
0.00244	-0.0386556	
0.002445	-0.0387251	
0.00245	-0.0387457	
0.002455	-0.0387806	
0.00246	-0.0388708	
0.002465	-0.0390407	
0.00247	-0.0393027	
0.002475	-0.0395654	
0.00248	-0.0397687	
0.002485	-0.0399232	
0.00249	-0.0399907	
0.002495	-0.0399501	
0.0025	-0.0398876	
0.002505	-0.0398612	
0.00251	-0.0397649	
0.002515	-0.0393892	
0.00252	-0.0383243	
0.002525	-0.0361422	
0.00253	-0.0329465	
0.002535	-0.029091	
0.00254	-0.0247927	
0.002545	-0.020168	
0.00255	-0.0153093	
0.002555	-0.0104309	
0.00256	-0.00577025	
0.002565	-0.00137861	
0.00257	0.00286564	
0.002575	0.00700212	
0.00258	0.0109194	
0.002585	0.014602	
0.00259	0.0180983	
0.002595	0.0213538	
0.0026	0.0244394	
0.002605	0.0274569	
0.00261	0.0303345	
0.002615	0.0330788	
0.00262	0.035748	
0.002625	0.0383364	
0.00263	0.0408443	
0.002635	0.0432281	
0.00264	0.0455122	
0.002645	0.0477653	
0.00265	0.0499388	
0.002655	0.0520522	
0.00266	0.0541686	
0.002665	0.0562819	
0.00267	0.0583883	
0.002675	0.0604381	
0.00268	0.0624011	
0.002685	0.0643091	
0.00269	0.0661381	
0.002695	0.0678761	
0.0027	0.069567	
0.002705	0.0712419	
0.00271	0.0728745	
0.002715	0.0744021	
0.00272	0.0758832	
0.002725	0.0774062	
0.00273	0.07898	
0.002735	0.0806077	
0.00274	0.0822417	
0.002745	0.08385	
0.00275	0.0855079	
0.002755	0.0872151	
0.00276	0.0888742	
0.002765	0.0904706	
0.00277	0.0919976	
0.002775	0.0934542	
0.00278	0.0948906	
0.002785	0.0962933	
0.00279	0.0976073	
0.002795	0.0988484	
0.0028	0.10003	
0.002805	0.101117	
0.00281	0.102137	
0.002815	0.103113	
0.00282	0.104013	
0.002825	0.104821	
0.00283	0.105577	
0.002835	0.106358	
0.00284	0.107167	
0.002845	0.107955	
0.00285	0.108741	
0.002855	0.109534	
0.00286	0.110296	
0.002865	0.111048	
0.00287	0.111758	
0.002875	0.112359	
0.00288	0.11286	
0.002885	0.113272	
0.00289	0.113652	
0.002895	0.114042	
0.0029	0.114419	
0.002905	0.114769	
0.00291	0.115087	
0.002915	0.115366	
0.00292	0.115609	
0.002925	0.115814	
0.00293	0.115986	
0.002935	0.116175	
0.00294	0.116462	
0.002945	0.116799	
0.00295	0.117059	
0.002955	0.117208	
0.00296	0.117276	
0.002965	0.117289	
0.00297	0.117263	
0.002975	0.117215	
0.00298	0.117152	
0.002985	0.117085	
0.00299	0.117016	
0.002995	0.116951	
0.003	0.11689	
0.003005	0.116788	
0.00301	0.116568	
0.003015	0.116234	
0.00302	0.115792	
0.003025	0.115254	
0.00303	0.114723	
0.003035	0.114272	
0.00304	0.113845	
0.003045	0.113361	
0.00305	0.112814	
0.003055	0.112251	
0.00306	0.111705	
0.003065	0.111147	
0.00307	0.110514	
0.003075	0.109813	
0.00308	0.109101	
0.003085	0.108414	
0.00309	0.107778	
0.003095	0.107157	
0.0031	0.10648	
0.003105	0.105751	
0.00311	0.104975	
0.003115	0.104108	
0.00312	0.103129	
0.003125	0.102074	
0.00313	0.101019	
0.003135	0.099966	
0.00314	0.0989169	
0.003145	0.0979198	
0.00315	0.0969568	
0.003155	0.0959666	
0.00316	0.0949579	
0.003165	0.0939846	
0.00317	0.0930332	
0.003175	0.0920461	
0.00318	0.0910347	
0.003185	0.0900551	
0.00319	0.0891428	
0.003195	0.0882704	
0.0032	0.0873231	
0.003205	0.0862285	
0.00321	0.0850411	
0.003215	0.0838011	
0.00322	0.0825375	
0.003225	0.0813182	
0.00323	0.0801381	
0.003235	0.0789923	
0.00324	0.0778756	
0.003245	0.076736	
0.00325	0.0755875	
0.003255	0.07444	
0.00326	0.0732524	
0.003265	0.0719994	
0.00327	0.0707151	
0.003275	0.0694708	
0.00328	0.0682642	
0.003285	0.067092	
0.00329	0.065998	
0.003295	0.0649597	
0.0033	0.0639597	
0.003305	0.0630323	
0.00331	0.062149	
0.003315	0.0612416	
0.00332	0.0603136	
0.003325	0.0594159	
0.00333	0.0584857	
0.003335	0.0574353	
0.00334	0.0563079	
0.003345	0.055183	
0.00335	0.0540655	
0.003355	0.0529106	
0.00336	0.0517381	
0.003365	0.0505619	
0.00337	0.0493439	
0.003375	0.0481084	
0.00338	0.0469198	
0.003385	0.0457708	
0.00339	0.0446071	
0.003395	0.0434889	
0.0034	0.042501	
0.003405	0.0415982	
0.00341	0.0407468	
0.003415	0.0399219	
0.00342	0.0390109	
0.003425	0.0379912	
0.00343	0.0369481	
0.003435	0.0358912	
0.00344	0.0348278	
0.003445	0.0338104	
0.00345	0.0328714	
0.003455	0.031981	
0.00346	0.0311172	
0.003465	0.0303118	
0.00347	0.0295355	
0.003475	0.0287675	
0.00348	0.0279938	
0.003485	0.0271579	
0.00349	0.0262729	
0.003495	0.0253975	
0.0035	0.0245222	
0.003505	0.0235934	
0.00351	0.0226256	
0.003515	0.0216779	
0.00352	0.0207883	
0.003525	0.0199316	
0.00353	0.0190419	
0.003535	0.0181251	
0.00354	0.0172338	
0.003545	0.0163539	
0.00355	0.0155231	
0.003555	0.0148115	
0.00356	0.0141172	
0.003565	0.0133719	
0.00357	0.0126284	
0.003575	0.0119211	
0.00358	0.0112237	
0.003585	0.0105182	
0.00359	0.00984077	
0.003595	0.00916634	
0.0036	0.00852579	
0.003605	0.00798541	
0.00361	0.0074891	
0.003615	0.00699779	
0.00362	0.00662808	
0.003625	0.0064511	
0.00363	0.0063145	
0.003635	0.00606838	
0.00364	0.00566662	
0.003645	0.0051337	
0.00365	0.00453951	
0.003655	0.00393303	
0.00366	0.00334713	
0.003665	0.00275497	
0.00367	0.00209162	
0.003675	0.00141272	
0.00368	0.000850731	
0.003685	0.000392416	
0.00369	-7.09377E-5	
0.003695	-0.000563233	
0.0037	-0.00105133	
0.003705	-0.00151356	
0.00371	-0.00193689	
0.003715	-0.00231454	
0.00372	-0.00264421	
0.003725	-0.00292665	
0.00373	-0.00316459	
0.003735	-0.00340948	
0.00374	-0.00374243	
0.003745	-0.0041177	
0.00375	-0.00445558	
0.003755	-0.00475284	
0.00376	-0.00496171	
0.003765	-0.00505489	
0.00377	-0.00511493	
0.003775	-0.00519779	
0.00378	-0.0052918	
0.003785	-0.00538871	
0.00379	-0.00543541	
0.003795	-0.00539926	
0.0038	-0.00535772	
0.003805	-0.00540968	
0.00381	-0.00537821	
0.003815	-0.00510309	
0.00382	-0.00482293	
0.003825	-0.00464777	
0.00383	-0.00455013	
0.003835	-0.00455575	
0.00384	-0.00458166	
0.003845	-0.00457218	
0.00385	-0.00453982	
0.003855	-0.0044939	
0.00386	-0.00444121	
0.003865	-0.00438656	
0.00387	-0.00428565	
0.003875	-0.00411149	
0.00388	-0.0039448	
0.003885	-0.00383846	
0.00389	-0.00377693	
0.003895	-0.0037954	
0.0039	-0.00386574	
0.003905	-0.00382435	
0.00391	-0.00366371	
0.003915	-0.00347958	
0.00392	-0.00324114	
0.003925	-0.00293062	
0.00393	-0.00253974	
0.003935	-0.00206682	
0.00394	-0.00160971	
0.003945	-0.00118465	
0.00395	-0.000658213	
0.003955	0.000100303	
0.00396	0.00111857	
0.003965	0.00240255	
0.00397	0.00399113	
0.003975	0.00584802	
0.00398	0.00788907	
0.003985	0.0100025	
0.00399	0.0121113	
0.003995	0.0143074	
0.004	0.0165998	
0.004005	0.0188473	
0.00401	0.0210539	
0.004015	0.0232243	
0.00402	0.0253157	
0.004025	0.0273512	
0.00403	0.0293485	
0.004035	0.0313214	
0.00404	0.0332323	
0.004045	0.0350595	
0.00405	0.0368878	
0.004055	0.0388203	
0.00406	0.0408254	
0.004065	0.0427833	
0.00407	0.0447127	
0.004075	0.0466746	
0.00408	0.0486127	
0.004085	0.0504434	
0.00409	0.0521643	
0.004095	0.0538264	
0.0041	0.0554188	
0.004105	0.0569373	
0.00411	0.0584303	
0.004115	0.0598836	
0.00412	0.0612418	
0.004125	0.0625207	
0.00413	0.0637343	
0.004135	0.0648475	
0.00414	0.0658893	
0.004145	0.0669299	
0.00415	0.0680156	
0.004155	0.0690796	
0.00416	0.0700314	
0.004165	0.0709118	
0.00417	0.071751	
0.004175	0.0725234	
0.00418	0.0732152	
0.004185	0.0738686	
0.00419	0.0745609	
0.004195	0.0752936	
0.0042	0.0760659	
0.004205	0.0769228	
0.00421	0.0778425	
0.004215	0.0787601	
0.00422	0.0795853	
0.004225	0.0802632	
0.00423	0.0808593	
0.004235	0.0814208	
0.00424	0.081933	
0.004245	0.0823885	
0.00425	0.08288	
0.004255	0.0834672	
0.00426	0.0839946	
0.004265	0.0843626	
0.00427	0.084608	
0.004275	0.084761	
0.00428	0.0848459	
0.004285	0.0848818	
0.00429	0.0848837	
0.004295	0.0848632	
0.0043	0.0848288	
0.004305	0.0847868	
0.00431	0.084742	
0.004315	0.0846972	
0.00432	0.0846547	
0.004325	0.0846157	
0.00433	0.0845808	
0.004335	0.0845503	
0.00434	0.0844766	
0.004345	0.0842353	
0.00435	0.0837998	
0.004355	0.0833044	
0.00436	0.082793	
0.004365	0.0822476	
0.00437	0.0817057	
0.004375	0.0811441	
0.00438	0.0805485	
0.004385	0.0799588	
0.00439	0.0794008	
0.004395	0.0788426	
0.0044	0.0782155	
0.004405	0.0775252	
0.00441	0.0768258	
0.004415	0.0761536	
0.00442	0.075531	
0.004425	0.074923	
0.00443	0.0742585	
0.004435	0.0734929	
0.00444	0.0726494	
0.004445	0.071842	
0.00445	0.0710965	
0.004455	0.0703321	
0.00446	0.0695438	
0.004465	0.0687771	
0.00447	0.0680132	
0.004475	0.0672399	
0.00448	0.066497	
0.004485	0.0657141	
0.00449	0.0648468	
0.004495	0.0639649	
0.0045	0.0630676	
0.004505	0.0621074	
0.00451	0.0611037	
0.004515	0.0601188	
0.00452	0.0591453	
0.004525	0.0581778	
0.00453	0.057165	
0.004535	0.0560751	
0.00454	0.0550335	
0.004545	0.0540255	
0.00455	0.0529447	
0.004555	0.0518195	
0.00456	0.0506706	
0.004565	0.0494655	
0.00457	0.0482327	
0.004575	0.04704	
0.00458	0.0458826	
0.004585	0.0447081	
0.00459	0.0435304	
0.004595	0.0424063	
0.0046	0.0413232	
0.004605	0.0402232	
0.00461	0.0391166	
0.004615	0.0380579	
0.00462	0.0370335	
0.004625	0.0359849	
0.00463	0.034875	
0.004635	0.0336821	
0.00464	0.0323958	
0.004645	0.0310612	
0.00465	0.0297579	
0.004655	0.0285369	
0.00466	0.0274279	
0.004665	0.0263976	
0.00467	0.0253729	
0.004675	0.0243053	
0.00468	0.0232124	
0.004685	0.0221545	
0.00469	0.0211221	
0.004695	0.0200603	
0.0047	0.0189819	
0.004705	0.0178959	
0.00471	0.0167613	
0.004715	0.0156007	
0.00472	0.0144778	
0.004725	0.013433	
0.00473	0.0124415	
0.004735	0.0114845	
0.00474	0.0105956	
0.004745	0.00974599	
0.00475	0.00891499	
0.004755	0.00808802	
0.00476	0.00720776	
0.004765	0.00623892	
0.00477	0.00516243	
0.004775	0.00401834	
0.00478	0.00288379	
0.004785	0.0018092	
0.00479	0.000824958	
0.004795	-0.000100689	
0.0048	-0.00103899	
0.004805	-0.0019888	
0.00481	-0.00290126	
0.004815	-0.00374595	
0.00482	-0.00455353	
0.004825	-0.00539353	
0.00483	-0.00626269	
0.004835	-0.00710998	
0.00484	-0.00790278	
0.004845	-0.00866968	
0.00485	-0.00947831	
0.004855	-0.0103237	
0.00486	-0.011201	
0.004865	-0.0121052	
0.00487	-0.012937	
0.004875	-0.0136816	
0.00488	-0.0144287	
0.004885	-0.0151895	
0.00489	-0.0159709	
0.004895	-0.0168241	
0.0049	-0.0177317	
0.004905	-0.0186324	
0.00491	-0.0194858	
0.004915	-0.0203152	
0.00492	-0.0211371	
0.004925	-0.0218677	
0.00493	-0.0225035	
0.004935	-0.0231418	
0.00494	-0.0237991	
0.004945	-0.0244379	
0.00495	-0.0250341	
0.004955	-0.0255742	
0.00496	-0.0260517	
0.004965	-0.0265129	
0.00497	-0.0270841	
0.004975	-0.0277959	
0.00498	-0.0285192	
0.004985	-0.0292159	
0.00499	-0.0299096	
0.004995	-0.0305685	
0.005	-0.0312209	
0.005005	-0.0318857	
0.00501	-0.0325271	
0.005015	-0.0331229	
0.00502	-0.0336603	
0.005025	-0.0341339	
0.00503	-0.034543	
0.005035	-0.0348901	
0.00504	-0.0351801	
0.005045	-0.0354186	
0.00505	-0.035612	
0.005055	-0.0357663	
0.00506	-0.0359353	
0.005065	-0.0361533	
