Time - Plot 0	Amplitude - Plot 0	
0	-0.0312687	
5E-6	-0.0307713	
1E-5	-0.0303188	
1.5E-5	-0.0299175	
2E-5	-0.0295689	
2.5E-5	-0.0291764	
3E-5	-0.0285359	
3.5E-5	-0.0275244	
4E-5	-0.0261261	
4.5E-5	-0.0243487	
5E-5	-0.0222153	
5.5E-5	-0.019758	
6E-5	-0.0171081	
6.5E-5	-0.0144092	
7E-5	-0.0116154	
7.5E-5	-0.00841586	
8E-5	-0.00452969	
8.5E-5	-4.1844E-5	
9E-5	0.00482058	
9.5E-5	0.00974753	
0.0001	0.014484	
0.000105	0.0190135	
0.00011	0.0233823	
0.000115	0.0275813	
0.00012	0.0315171	
0.000125	0.0351409	
0.00013	0.0385301	
0.000135	0.041747	
0.00014	0.0447931	
0.000145	0.0476301	
0.00015	0.0502426	
0.000155	0.0527262	
0.00016	0.0551022	
0.000165	0.0573426	
0.00017	0.0594826	
0.000175	0.0615503	
0.00018	0.0635201	
0.000185	0.0653321	
0.00019	0.0670494	
0.000195	0.0687658	
0.0002	0.0704478	
0.000205	0.0720277	
0.00021	0.0735129	
0.000215	0.0750082	
0.00022	0.076582	
0.000225	0.0781331	
0.00023	0.0795483	
0.000235	0.0808546	
0.00024	0.0820747	
0.000245	0.0832279	
0.00025	0.0843775	
0.000255	0.0855178	
0.00026	0.0866457	
0.000265	0.0878071	
0.00027	0.0889832	
0.000275	0.0900658	
0.00028	0.090988	
0.000285	0.0918084	
0.00029	0.0925704	
0.000295	0.0933054	
0.0003	0.0940829	
0.000305	0.0948991	
0.00031	0.0957023	
0.000315	0.096459	
0.00032	0.0971491	
0.000325	0.0978103	
0.00033	0.0985162	
0.000335	0.0992657	
0.00034	0.099961	
0.000345	0.10054	
0.00035	0.101063	
0.000355	0.101571	
0.00036	0.102046	
0.000365	0.102476	
0.00037	0.102856	
0.000375	0.103186	
0.00038	0.103467	
0.000385	0.103701	
0.00039	0.103943	
0.000395	0.104224	
0.0004	0.104472	
0.000405	0.104637	
0.00041	0.104741	
0.000415	0.104751	
0.00042	0.104652	
0.000425	0.104533	
0.00043	0.104407	
0.000435	0.104186	
0.00044	0.103914	
0.000445	0.103669	
0.00045	0.103452	
0.000455	0.103265	
0.00046	0.103058	
0.000465	0.102849	
0.00047	0.102647	
0.000475	0.102365	
0.00048	0.101996	
0.000485	0.101587	
0.00049	0.101171	
0.000495	0.10077	
0.0005	0.100303	
0.000505	0.0996239	
0.00051	0.09879	
0.000515	0.0979409	
0.00052	0.097122	
0.000525	0.0963616	
0.00053	0.0956758	
0.000535	0.0950241	
0.00054	0.0943307	
0.000545	0.0935949	
0.00055	0.0928661	
0.000555	0.0921763	
0.00056	0.0916875	
0.000565	0.0914494	
0.00057	0.0911027	
0.000575	0.090463	
0.00058	0.0896604	
0.000585	0.0887409	
0.00059	0.0877402	
0.000595	0.0866858	
0.0006	0.0855507	
0.000605	0.0843687	
0.00061	0.0832116	
0.000615	0.0821256	
0.00062	0.0810904	
0.000625	0.0800425	
0.00063	0.0789883	
0.000635	0.0779798	
0.00064	0.0770016	
0.000645	0.0759946	
0.00065	0.0749687	
0.000655	0.0740739	
0.00066	0.0733554	
0.000665	0.0725969	
0.00067	0.0717055	
0.000675	0.0707685	
0.00068	0.0697982	
0.000685	0.0687568	
0.00069	0.0676228	
0.000695	0.0663861	
0.0007	0.0651404	
0.000705	0.063995	
0.00071	0.0629226	
0.000715	0.0618538	
0.00072	0.060743	
0.000725	0.0596094	
0.00073	0.0585144	
0.000735	0.0574967	
0.00074	0.0565305	
0.000745	0.0555489	
0.00075	0.054461	
0.000755	0.0532594	
0.00076	0.0520872	
0.000765	0.0509897	
0.00077	0.049946	
0.000775	0.0489871	
0.00078	0.0481294	
0.000785	0.047379	
0.00079	0.0466874	
0.000795	0.0459246	
0.0008	0.0450083	
0.000805	0.0439866	
0.00081	0.0429438	
0.000815	0.0419364	
0.00082	0.0409524	
0.000825	0.0399828	
0.00083	0.0390687	
0.000835	0.0381867	
0.00084	0.0373202	
0.000845	0.0364573	
0.00085	0.0355426	
0.000855	0.0345893	
0.00086	0.0336558	
0.000865	0.0327795	
0.00087	0.0319347	
0.000875	0.0310557	
0.00088	0.0301005	
0.000885	0.0290929	
0.00089	0.0281457	
0.000895	0.0273309	
0.0009	0.0265943	
0.000905	0.025849	
0.00091	0.0250381	
0.000915	0.0241749	
0.00092	0.0233179	
0.000925	0.0224581	
0.00093	0.0215896	
0.000935	0.0207563	
0.00094	0.0197481	
0.000945	0.018387	
0.00095	0.0170001	
0.000955	0.0158521	
0.00096	0.0149158	
0.000965	0.0141634	
0.00097	0.0135678	
0.000975	0.0130563	
0.00098	0.0125293	
0.000985	0.0120171	
0.00099	0.0116338	
0.000995	0.0113538	
0.001	0.0111075	
0.001005	0.0108951	
0.00101	0.0106675	
0.001015	0.0103932	
0.00102	0.0100536	
0.001025	0.0096393	
0.00103	0.00919545	
0.001035	0.0088957	
0.00104	0.00884773	
0.001045	0.00873038	
0.00105	0.00833515	
0.001055	0.00782293	
0.00106	0.00730534	
0.001065	0.00680868	
0.00107	0.00630178	
0.001075	0.00571704	
0.00108	0.00510863	
0.001085	0.00456092	
0.00109	0.00403161	
0.001095	0.00349192	
0.0011	0.00297092	
0.001105	0.00248689	
0.00111	0.00205012	
0.001115	0.00166517	
0.00112	0.0013326	
0.001125	0.0010503	
0.00113	0.000957087	
0.001135	0.00113558	
0.00114	0.00134216	
0.001145	0.00136735	
0.00115	0.00117668	
0.001155	0.000805168	
0.00116	0.000379526	
0.001165	3.33952E-5	
0.00117	-0.000243938	
0.001175	-0.000557865	
0.00118	-0.000928606	
0.001185	-0.00127174	
0.00119	-0.0015329	
0.001195	-0.00172766	
0.0012	-0.00186943	
0.001205	-0.0020171	
0.00121	-0.00220919	
0.001215	-0.0024215	
0.00122	-0.0026371	
0.001225	-0.00284466	
0.00123	-0.00303712	
0.001235	-0.00316296	
0.00124	-0.00314388	
0.001245	-0.00303013	
0.00125	-0.00290688	
0.001255	-0.0027832	
0.00126	-0.00266509	
0.001265	-0.00255623	
0.00127	-0.00250615	
0.001275	-0.00249721	
0.00128	-0.00242073	
0.001285	-0.00225582	
0.00129	-0.00204038	
0.001295	-0.00180183	
0.0013	-0.00155933	
0.001305	-0.00132568	
0.00131	-0.00106139	
0.001315	-0.000646784	
0.00132	-0.000105151	
0.001325	0.000542156	
0.00133	0.00156127	
0.001335	0.00306254	
0.00134	0.00490579	
0.001345	0.0069824	
0.00135	0.00925727	
0.001355	0.0116979	
0.00136	0.0142749	
0.001365	0.0170102	
0.00137	0.0198154	
0.001375	0.0225817	
0.00138	0.025239	
0.001385	0.0277463	
0.00139	0.0301787	
0.001395	0.0325892	
0.0014	0.0349189	
0.001405	0.0371326	
0.00141	0.0393078	
0.001415	0.0413546	
0.00142	0.043125	
0.001425	0.0447719	
0.00143	0.0464497	
0.001435	0.0481636	
0.00144	0.0499152	
0.001445	0.0517516	
0.00145	0.0536995	
0.001455	0.0556764	
0.00146	0.0575789	
0.001465	0.0593899	
0.00147	0.0611975	
0.001475	0.06306	
0.00148	0.0649181	
0.001485	0.066733	
0.00149	0.068481	
0.001495	0.0700548	
0.0015	0.0714393	
0.001505	0.0727285	
0.00151	0.0740841	
0.001515	0.0756095	
0.00152	0.0771271	
0.001525	0.0784728	
0.00153	0.079689	
0.001535	0.0808573	
0.00154	0.0819864	
0.001545	0.0830362	
0.00155	0.0840316	
0.001555	0.0849916	
0.00156	0.0858354	
0.001565	0.0865625	
0.00157	0.0872734	
0.001575	0.0879876	
0.00158	0.0886701	
0.001585	0.0892995	
0.00159	0.0899116	
0.001595	0.0905785	
0.0016	0.0912498	
0.001605	0.0918449	
0.00161	0.0924091	
0.001615	0.0929738	
0.00162	0.0934645	
0.001625	0.0938357	
0.00163	0.0941581	
0.001635	0.0944806	
0.00164	0.0947404	
0.001645	0.094899	
0.00165	0.095031	
0.001655	0.0951866	
0.00166	0.0953505	
0.001665	0.0955121	
0.00167	0.0956646	
0.001675	0.0958038	
0.00168	0.0959277	
0.001685	0.0960356	
0.00169	0.0961279	
0.001695	0.0962055	
0.0017	0.0962698	
0.001705	0.0963222	
0.00171	0.0963644	
0.001715	0.0963977	
0.00172	0.0963762	
0.001725	0.0962244	
0.00173	0.0959464	
0.001735	0.0957409	
0.00174	0.0957356	
0.001745	0.0957199	
0.00175	0.0955079	
0.001755	0.0950815	
0.00176	0.0944863	
0.001765	0.093808	
0.00177	0.093107	
0.001775	0.0924241	
0.00178	0.091738	
0.001785	0.0909872	
0.00179	0.0901816	
0.001795	0.089378	
0.0018	0.0886138	
0.001805	0.0879116	
0.00181	0.0872836	
0.001815	0.0867342	
0.00182	0.0862151	
0.001825	0.0856454	
0.00183	0.0850217	
0.001835	0.0843445	
0.00184	0.0835689	
0.001845	0.0827176	
0.00185	0.0818566	
0.001855	0.0809825	
0.00186	0.0800459	
0.001865	0.079065	
0.00187	0.0781011	
0.001875	0.0771466	
0.00188	0.0761959	
0.001885	0.0752927	
0.00189	0.0744159	
0.001895	0.0735029	
0.0019	0.0725143	
0.001905	0.0714749	
0.00191	0.0703562	
0.001915	0.0690955	
0.00192	0.0677533	
0.001925	0.0662306	
0.00193	0.0644709	
0.001935	0.0627806	
0.00194	0.0613113	
0.001945	0.0599619	
0.00195	0.0587081	
0.001955	0.0575764	
0.00196	0.0565788	
0.001965	0.0556694	
0.00197	0.0547659	
0.001975	0.0538616	
0.00198	0.0529996	
0.001985	0.0521586	
0.00199	0.0512762	
0.001995	0.0503607	
0.002	0.0494192	
0.002005	0.0484099	
0.00201	0.0473086	
0.002015	0.0461038	
0.00202	0.0450777	
0.002025	0.0444082	
0.00203	0.0436727	
0.002035	0.0426432	
0.00204	0.0414687	
0.002045	0.0402065	
0.00205	0.0388511	
0.002055	0.0374509	
0.00206	0.0360873	
0.002065	0.0347648	
0.00207	0.0334845	
0.002075	0.0322925	
0.00208	0.0311201	
0.002085	0.0298733	
0.00209	0.0285891	
0.002095	0.0273409	
0.0021	0.0261754	
0.002105	0.0250721	
0.00211	0.0239669	
0.002115	0.0227225	
0.00212	0.0213027	
0.002125	0.0199294	
0.00213	0.0186993	
0.002135	0.0175742	
0.00214	0.0165716	
0.002145	0.0156972	
0.00215	0.0149011	
0.002155	0.0140992	
0.00216	0.0132839	
0.002165	0.0124508	
0.00217	0.0115503	
0.002175	0.0105528	
0.00218	0.00949112	
0.002185	0.00843725	
0.00219	0.00739086	
0.002195	0.00635136	
0.0022	0.00536557	
0.002205	0.00446181	
0.00221	0.00360736	
0.002215	0.00273076	
0.00222	0.00183347	
0.002225	0.000964995	
0.00223	0.000109051	
0.002235	-0.000793215	
0.00224	-0.00173088	
0.002245	-0.00260001	
0.00225	-0.0033353	
0.002255	-0.00404264	
0.00226	-0.0048407	
0.002265	-0.00570837	
0.00227	-0.00658089	
0.002275	-0.00741535	
0.00228	-0.00818523	
0.002285	-0.00892367	
0.00229	-0.00970152	
0.002295	-0.0105161	
0.0023	-0.0113639	
0.002305	-0.012241	
0.00231	-0.013096	
0.002315	-0.0139435	
0.00232	-0.0147935	
0.002325	-0.015605	
0.00233	-0.0164002	
0.002335	-0.0172421	
0.00234	-0.018075	
0.002345	-0.0187675	
0.00235	-0.0193347	
0.002355	-0.0198875	
0.00236	-0.0204522	
0.002365	-0.0209981	
0.00237	-0.0215532	
0.002375	-0.0221357	
0.00238	-0.0227087	
0.002385	-0.0232959	
0.00239	-0.0239123	
0.002395	-0.0245186	
0.0024	-0.0250897	
0.002405	-0.0256581	
0.00241	-0.0262454	
0.002415	-0.0267698	
0.00242	-0.0271804	
0.002425	-0.0274965	
0.00243	-0.0277354	
0.002435	-0.0279597	
0.00244	-0.0282587	
0.002445	-0.0286404	
0.00245	-0.0290586	
0.002455	-0.029481	
0.00246	-0.0298863	
0.002465	-0.0302611	
0.00247	-0.0306456	
0.002475	-0.0311134	
0.00248	-0.0316616	
0.002485	-0.0321892	
0.00249	-0.0326308	
0.002495	-0.0330423	
0.0025	-0.0334621	
0.002505	-0.0338675	
0.00251	-0.0342442	
0.002515	-0.0345842	
0.00252	-0.0348839	
0.002525	-0.0351428	
0.00253	-0.0353627	
0.002535	-0.0354988	
0.00254	-0.0355257	
0.002545	-0.0355269	
0.00255	-0.0355586	
0.002555	-0.035609	
0.00256	-0.0356693	
0.002565	-0.0357332	
0.00257	-0.0357965	
0.002575	-0.0357614	
0.00258	-0.0355679	
0.002585	-0.0353743	
0.00259	-0.0352847	
0.002595	-0.0352681	
0.0026	-0.0353003	
0.002605	-0.0353632	
0.00261	-0.0353958	
0.002615	-0.0353118	
0.00262	-0.0351074	
0.002625	-0.0348333	
0.00263	-0.0345737	
0.002635	-0.0343834	
0.00264	-0.0342004	
0.002645	-0.0339833	
0.00265	-0.0337539	
0.002655	-0.0335273	
0.00266	-0.0333133	
0.002665	-0.0331177	
0.00267	-0.0328484	
0.002675	-0.0323055	
0.00268	-0.0312277	
0.002685	-0.0294679	
0.00269	-0.027199	
0.002695	-0.0245592	
0.0027	-0.021562	
0.002705	-0.0183759	
0.00271	-0.0151683	
0.002715	-0.0119557	
0.00272	-0.00874909	
0.002725	-0.00565062	
0.00273	-0.00272244	
0.002735	5.00273E-5	
0.00274	0.00268377	
0.002745	0.00519655	
0.00275	0.00760579	
0.002755	0.00992788	
0.00276	0.0121778	
0.002765	0.0143211	
0.00277	0.0162929	
0.002775	0.0181534	
0.00278	0.019995	
0.002785	0.0217847	
0.00279	0.0234555	
0.002795	0.0250164	
0.0028	0.0265261	
0.002805	0.0279782	
0.00281	0.0293711	
0.002815	0.0307542	
0.00282	0.0321605	
0.002825	0.0336106	
0.00283	0.0350686	
0.002835	0.0365103	
0.00284	0.0379207	
0.002845	0.0392437	
0.00285	0.040494	
0.002855	0.0417324	
0.00286	0.0429518	
0.002865	0.0440535	
0.00287	0.0450256	
0.002875	0.0459612	
0.00288	0.046876	
0.002885	0.0477339	
0.00289	0.0485137	
0.002895	0.0492527	
0.0029	0.0500248	
0.002905	0.0508298	
0.00291	0.0516184	
0.002915	0.052359	
0.00292	0.0530803	
0.002925	0.0538499	
0.00293	0.054615	
0.002935	0.0552457	
0.00294	0.0557582	
0.002945	0.0562634	
0.00295	0.0567875	
0.002955	0.0572993	
0.00296	0.0577787	
0.002965	0.0582617	
0.00297	0.0587717	
0.002975	0.0592278	
0.00298	0.0596269	
0.002985	0.0600645	
0.00299	0.0605069	
0.002995	0.0608364	
0.003	0.0610759	
0.003005	0.0613398	
0.00301	0.0616073	
0.003015	0.061817	
0.00302	0.0619786	
0.003025	0.0621009	
0.00303	0.0621915	
0.003035	0.062257	
0.00304	0.0623502	
0.003045	0.062505	
0.00305	0.0626929	
0.003055	0.0628463	
0.00306	0.0629222	
0.003065	0.0629433	
0.00307	0.0628798	
0.003075	0.062716	
0.00308	0.0624938	
0.003085	0.0622436	
0.00309	0.0619868	
0.003095	0.0616902	
0.0031	0.0612864	
0.003105	0.0608309	
0.00311	0.0604105	
0.003115	0.0599856	
0.00312	0.0595302	
0.003125	0.0590287	
0.00313	0.0584731	
0.003135	0.057908	
0.00314	0.0573159	
0.003145	0.0566864	
0.00315	0.056062	
0.003155	0.0554231	
0.00316	0.0547572	
0.003165	0.054105	
0.00317	0.0534927	
0.003175	0.0529357	
0.00318	0.0523464	
0.003185	0.0516686	
0.00319	0.0509645	
0.003195	0.0502289	
0.0032	0.0494122	
0.003205	0.0485331	
0.00321	0.0476544	
0.003215	0.0467701	
0.00322	0.0458288	
0.003225	0.0447994	
0.00323	0.043713	
0.003235	0.0426404	
0.00324	0.0416277	
0.003245	0.0407024	
0.00325	0.0398309	
0.003255	0.038941	
0.00326	0.0380336	
0.003265	0.0371575	
0.00327	0.036296	
0.003275	0.0353898	
0.00328	0.0344495	
0.003285	0.033531	
0.00329	0.032623	
0.003295	0.0316697	
0.0033	0.0306841	
0.003305	0.0297238	
0.00331	0.0287781	
0.003315	0.0277916	
0.00332	0.0267774	
0.003325	0.0257929	
0.00333	0.024827	
0.003335	0.0238716	
0.00334	0.0229206	
0.003345	0.021875	
0.00335	0.0207214	
0.003355	0.0195511	
0.00336	0.0184252	
0.003365	0.0173818	
0.00337	0.0163946	
0.003375	0.0153961	
0.00338	0.0143898	
0.003385	0.013426	
0.00339	0.0124882	
0.003395	0.0115645	
0.0034	0.0107412	
0.003405	0.0100231	
0.00341	0.00926567	
0.003415	0.00837556	
0.00342	0.00739253	
0.003425	0.00639473	
0.00343	0.00548191	
0.003435	0.00471584	
0.00344	0.00398769	
0.003445	0.00317638	
0.00345	0.00230106	
0.003455	0.00137742	
0.00346	0.00041806	
0.003465	-0.000519472	
0.00347	-0.00144581	
0.003475	-0.00241601	
0.00348	-0.00341679	
0.003485	-0.0043904	
0.00349	-0.00534757	
0.003495	-0.00629617	
0.0035	-0.00719426	
0.003505	-0.00806409	
0.00351	-0.00896923	
0.003515	-0.00990237	
0.00352	-0.0108098	
0.003525	-0.0116575	
0.00353	-0.0124731	
0.003535	-0.0132765	
0.00354	-0.0140339	
0.003545	-0.0147728	
0.00355	-0.0155119	
0.003555	-0.0162638	
0.00356	-0.0170836	
0.003565	-0.017957	
0.00357	-0.0188244	
0.003575	-0.0196468	
0.00358	-0.0204006	
0.003585	-0.0210736	
0.00359	-0.0216615	
0.003595	-0.0222129	
0.0036	-0.0228093	
0.003605	-0.0234547	
0.00361	-0.0241495	
0.003615	-0.0249389	
0.00362	-0.0257535	
0.003625	-0.0264985	
0.00363	-0.02721	
0.003635	-0.0279133	
0.00364	-0.0285779	
0.003645	-0.0292331	
0.00365	-0.0298987	
0.003655	-0.0305396	
0.00366	-0.0311814	
0.003665	-0.0318411	
0.00367	-0.0324813	
0.003675	-0.0330784	
0.00368	-0.0336188	
0.003685	-0.0340964	
0.00369	-0.0345098	
0.003695	-0.034909	
0.0037	-0.0353749	
0.003705	-0.0359104	
0.00371	-0.0364664	
0.003715	-0.0371047	
0.00372	-0.0378622	
0.003725	-0.0385673	
0.00373	-0.0391095	
0.003735	-0.0395186	
0.00374	-0.0398206	
0.003745	-0.0400377	
0.00375	-0.0402362	
0.003755	-0.0405079	
0.00376	-0.0408627	
0.003765	-0.0412555	
0.00377	-0.0416072	
0.003775	-0.0418202	
0.00378	-0.0419315	
0.003785	-0.0420657	
0.00379	-0.0422086	
0.003795	-0.0423029	
0.0038	-0.0423607	
0.003805	-0.0423443	
0.00381	-0.0421845	
0.003815	-0.0419378	
0.00382	-0.0417881	
0.003825	-0.0417569	
0.00383	-0.0417103	
0.003835	-0.0416557	
0.00384	-0.041646	
0.003845	-0.0416188	
0.00385	-0.0415813	
0.003855	-0.0416339	
0.00386	-0.041791	
0.003865	-0.0419619	
0.00387	-0.0420389	
0.003875	-0.0420027	
0.00388	-0.0418937	
0.003885	-0.0417417	
0.00389	-0.0415686	
0.003895	-0.0413898	
0.0039	-0.0412157	
0.003905	-0.0411004	
0.00391	-0.041077	
0.003915	-0.0410676	
0.00392	-0.0410204	
0.003925	-0.0409506	
0.00393	-0.0408691	
0.003935	-0.0407837	
0.00394	-0.0406999	
0.003945	-0.0405735	
0.00395	-0.0403299	
0.003955	-0.0400206	
0.00396	-0.0397302	
0.003965	-0.0394183	
0.00397	-0.0390596	
0.003975	-0.0386869	
0.00398	-0.0383226	
0.003985	-0.0378861	
0.00399	-0.0371849	
0.003995	-0.0361046	
0.004	-0.0346829	
0.004005	-0.0329608	
0.00401	-0.0308843	
0.004015	-0.0284347	
0.00402	-0.0256648	
0.004025	-0.0223869	
0.00403	-0.0182637	
0.004035	-0.0133977	
0.00404	-0.00817722	
0.004045	-0.00282721	
0.00405	0.00254528	
0.004055	0.00782109	
0.00406	0.0128311	
0.004065	0.0175241	
0.00407	0.0219761	
0.004075	0.0262014	
0.00408	0.0301723	
0.004085	0.0338828	
0.00409	0.0373887	
0.004095	0.040784	
0.0041	0.0440884	
0.004105	0.0472241	
0.00411	0.0501479	
0.004115	0.0528886	
0.00412	0.0554741	
0.004125	0.0578825	
0.00413	0.0600603	
0.004135	0.062078	
0.00414	0.0640374	
0.004145	0.0659607	
0.00415	0.0678643	
0.004155	0.06976	
0.00416	0.0716558	
0.004165	0.0735097	
0.00417	0.0752957	
0.004175	0.077	
0.00418	0.0785698	
0.004185	0.0800718	
0.00419	0.0815056	
0.004195	0.082779	
0.0042	0.0839816	
0.004205	0.0852231	
0.00421	0.0865268	
0.004215	0.0878572	
0.00422	0.0891899	
0.004225	0.0905085	
0.00423	0.0917556	
0.004235	0.0929441	
0.00424	0.0940852	
0.004245	0.0951886	
0.00425	0.0963101	
0.004255	0.0974379	
0.00426	0.0985167	
0.004265	0.099512	
0.00427	0.100405	
0.004275	0.101237	
0.00428	0.102035	
0.004285	0.102727	
0.00429	0.103315	
0.004295	0.103903	
0.0043	0.104558	
0.004305	0.10532	
0.00431	0.106166	
0.004315	0.106978	
0.00432	0.107683	
0.004325	0.108331	
0.00433	0.108958	
0.004335	0.109542	
0.00434	0.11007	
0.004345	0.110536	
0.00435	0.11094	
0.004355	0.111282	
0.00436	0.111569	
0.004365	0.111804	
0.00437	0.111996	
0.004375	0.112149	
0.00438	0.112174	
0.004385	0.112019	
0.00439	0.111848	
0.004395	0.111768	
0.0044	0.111754	
0.004405	0.11183	
0.00441	0.11201	
0.004415	0.112155	
0.00442	0.112127	
0.004425	0.111939	
0.00443	0.111702	
0.004435	0.111491	
0.00444	0.111308	
0.004445	0.111152	
0.00445	0.110972	
0.004455	0.110739	
0.00446	0.110482	
0.004465	0.11022	
0.00447	0.109969	
0.004475	0.109735	
0.00448	0.109477	
0.004485	0.109121	
0.00449	0.108668	
0.004495	0.108126	
0.0045	0.107455	
0.004505	0.106684	
0.00451	0.105836	
0.004515	0.104929	
0.00452	0.104075	
0.004525	0.103295	
0.00453	0.102506	
0.004535	0.101701	
0.00454	0.100876	
0.004545	0.100029	
0.00455	0.0992074	
0.004555	0.098442	
0.00456	0.0977495	
0.004565	0.0970905	
0.00457	0.096437	
0.004575	0.0957706	
0.00458	0.0950322	
0.004585	0.0942336	
0.00459	0.0934331	
0.004595	0.0926217	
0.0046	0.0917465	
0.004605	0.0907754	
0.00461	0.0896921	
0.004615	0.0884908	
0.00462	0.0872211	
0.004625	0.0860139	
0.00463	0.084905	
0.004635	0.0838182	
0.00464	0.0827024	
0.004645	0.0815252	
0.00465	0.0803156	
0.004655	0.0791418	
0.00466	0.0779997	
0.004665	0.0768849	
0.00467	0.0758409	
0.004675	0.0748454	
0.00468	0.0738814	
0.004685	0.0729362	
0.00469	0.0719531	
0.004695	0.070944	
0.0047	0.0699654	
0.004705	0.0690057	
0.00471	0.0680087	
0.004715	0.0669869	
0.00472	0.0659969	
0.004725	0.0650273	
0.00473	0.0640219	
0.004735	0.0629928	
0.00474	0.0619969	
0.004745	0.0610224	
0.00475	0.060013	
0.004755	0.0590284	
0.00476	0.0580591	
0.004765	0.0570032	
0.00477	0.0559401	
0.004775	0.0549225	
0.00478	0.0538881	
0.004785	0.0528439	
0.00479	0.0518901	
0.004795	0.0510887	
0.0048	0.0503781	
0.004805	0.0496183	
0.00481	0.048767	
0.004815	0.0479432	
0.00482	0.0471764	
0.004825	0.0463885	
0.00483	0.0455763	
0.004835	0.044739	
0.00484	0.0438297	
0.004845	0.0428684	
0.00485	0.0419183	
0.004855	0.0410204	
0.00486	0.040152	
0.004865	0.0392965	
0.00487	0.0384901	
0.004875	0.0377065	
0.00488	0.03688	
0.004885	0.0359693	
0.00489	0.035046	
0.004895	0.0342058	
0.0049	0.0334124	
0.004905	0.03264	
0.00491	0.0319179	
0.004915	0.0312156	
0.00492	0.0304645	
0.004925	0.0296692	
0.00493	0.0288824	
0.004935	0.0281384	
0.00494	0.0274103	
0.004945	0.026632	
0.00495	0.0258099	
0.004955	0.0249979	
0.00496	0.0242308	
0.004965	0.0235297	
0.00497	0.0228577	
0.004975	0.0221416	
0.00498	0.0214303	
0.004985	0.0208033	
0.00499	0.0202141	
0.004995	0.0196301	
0.005	0.0190771	
0.005005	0.0185708	
0.00501	0.0181192	
0.005015	0.017725	
0.00502	0.0173397	
0.005025	0.0169311	
0.00503	0.0165263	
0.005035	0.0161433	
0.00504	0.0157927	
0.005045	0.0154326	
0.00505	0.0150356	
0.005055	0.0146331	
0.00506	0.0142461	
0.005065	0.0138875	
0.00507	0.0135647	
0.005075	0.0132331	
0.00508	0.0127689	
0.005085	0.0121916	
0.00509	0.0116622	
