Time - Plot 0	Amplitude - Plot 0	
0	0.0962512	
5E-6	0.0962567	
1E-5	0.0962234	
1.5E-5	0.0961187	
2E-5	0.0959717	
2.5E-5	0.0957564	
3E-5	0.0954586	
3.5E-5	0.0951206	
4E-5	0.094772	
4.5E-5	0.0943853	
5E-5	0.0939444	
5.5E-5	0.0934885	
6E-5	0.0929967	
6.5E-5	0.0925046	
7E-5	0.0921306	
7.5E-5	0.0918522	
8E-5	0.0915073	
8.5E-5	0.0910399	
9E-5	0.0905613	
9.5E-5	0.0901455	
0.0001	0.0897432	
0.000105	0.0892739	
0.00011	0.0886874	
0.000115	0.0879564	
0.00012	0.0871171	
0.000125	0.0862461	
0.00013	0.0853954	
0.000135	0.0845983	
0.00014	0.0838267	
0.000145	0.0830134	
0.00015	0.082116	
0.000155	0.081158	
0.00016	0.0802054	
0.000165	0.0792538	
0.00017	0.0782529	
0.000175	0.0771717	
0.00018	0.0760412	
0.000185	0.0749317	
0.00019	0.0738409	
0.000195	0.0727189	
0.0002	0.0715345	
0.000205	0.0702698	
0.00021	0.0689644	
0.000215	0.0676465	
0.00022	0.0662875	
0.000225	0.0649182	
0.00023	0.0636069	
0.000235	0.0623958	
0.00024	0.061308	
0.000245	0.0603056	
0.00025	0.0592641	
0.000255	0.0581512	
0.00026	0.0569962	
0.000265	0.055773	
0.00027	0.0545627	
0.000275	0.0534182	
0.00028	0.0522761	
0.000285	0.0510946	
0.00029	0.0498478	
0.000295	0.0486171	
0.0003	0.0475026	
0.000305	0.0464699	
0.00031	0.045445	
0.000315	0.0443311	
0.00032	0.0431161	
0.000325	0.0418919	
0.00033	0.040672	
0.000335	0.0394175	
0.00034	0.0381522	
0.000345	0.0369394	
0.00035	0.0358187	
0.000355	0.0348116	
0.00036	0.0338797	
0.000365	0.0329938	
0.00037	0.0321326	
0.000375	0.0312333	
0.00038	0.030304	
0.000385	0.0293988	
0.00039	0.0285048	
0.000395	0.0275654	
0.0004	0.0265929	
0.000405	0.0256446	
0.00041	0.0247571	
0.000415	0.0239042	
0.00042	0.0230193	
0.000425	0.0221077	
0.00043	0.021174	
0.000435	0.0201749	
0.00044	0.0191323	
0.000445	0.0181104	
0.00045	0.0171504	
0.000455	0.0162292	
0.00046	0.0152345	
0.000465	0.0140958	
0.00047	0.0128684	
0.000475	0.0116406	
0.00048	0.0104231	
0.000485	0.00922246	
0.00049	0.00808969	
0.000495	0.00700771	
0.0005	0.00596287	
0.000505	0.00494439	
0.00051	0.0038964	
0.000515	0.00283098	
0.00052	0.00180447	
0.000525	0.000852154	
0.00053	-6.19546E-6	
0.000535	-0.000857061	
0.00054	-0.00180536	
0.000545	-0.00277304	
0.00055	-0.00366019	
0.000555	-0.00449984	
0.00056	-0.0053635	
0.000565	-0.0062497	
0.00057	-0.00710884	
0.000575	-0.0079095	
0.00058	-0.00868126	
0.000585	-0.00949255	
0.00059	-0.0103391	
0.000595	-0.0111687	
0.0006	-0.0119481	
0.000605	-0.012705	
0.00061	-0.0134587	
0.000615	-0.0141748	
0.00062	-0.0148796	
0.000625	-0.0156388	
0.00063	-0.016493	
0.000635	-0.0173695	
0.00064	-0.0181241	
0.000645	-0.0187626	
0.00065	-0.0193895	
0.000655	-0.0200267	
0.00066	-0.0206879	
0.000665	-0.0213813	
0.00067	-0.0220632	
0.000675	-0.0227526	
0.00068	-0.0234146	
0.000685	-0.0239794	
0.00069	-0.0245012	
0.000695	-0.0250173	
0.0007	-0.0255529	
0.000705	-0.0261235	
0.00071	-0.0266427	
0.000715	-0.0271034	
0.00072	-0.0275988	
0.000725	-0.0280937	
0.00073	-0.0285173	
0.000735	-0.0289214	
0.00074	-0.029341	
0.000745	-0.0297511	
0.00075	-0.0301354	
0.000755	-0.0304847	
0.00076	-0.0307942	
0.000765	-0.0310629	
0.00077	-0.031292	
0.000775	-0.0314842	
0.00078	-0.0316429	
0.000785	-0.0318195	
0.00079	-0.0320948	
0.000795	-0.032422	
0.0008	-0.0326729	
0.000805	-0.0328141	
0.00081	-0.0329239	
0.000815	-0.0331027	
0.00082	-0.0333663	
0.000825	-0.0336256	
0.00083	-0.0338224	
0.000835	-0.0340162	
0.00084	-0.0342463	
0.000845	-0.0344896	
0.00085	-0.03473	
0.000855	-0.0349571	
0.00086	-0.0351647	
0.000865	-0.0353021	
0.00087	-0.0353392	
0.000875	-0.0353084	
0.00088	-0.0352343	
0.000885	-0.0351827	
0.00089	-0.0351959	
0.000895	-0.0352512	
0.0009	-0.0353316	
0.000905	-0.0353772	
0.00091	-0.0353027	
0.000915	-0.0351526	
0.00092	-0.0350071	
0.000925	-0.0348717	
0.00093	-0.0347492	
0.000935	-0.0345936	
0.00094	-0.0343759	
0.000945	-0.0341276	
0.00095	-0.0338709	
0.000955	-0.0335732	
0.00096	-0.033215	
0.000965	-0.0328815	
0.00097	-0.0326275	
0.000975	-0.0323904	
0.00098	-0.0320806	
0.000985	-0.03169	
0.00099	-0.0311695	
0.000995	-0.0300176	
0.001	-0.0278858	
0.001005	-0.0252089	
0.00101	-0.0222991	
0.001015	-0.0191832	
0.00102	-0.0159838	
0.001025	-0.012738	
0.00103	-0.00947253	
0.001035	-0.00620594	
0.00104	-0.00295052	
0.001045	0.000143582	
0.00105	0.00298497	
0.001055	0.0056204	
0.00106	0.00809047	
0.001065	0.0104297	
0.00107	0.0126197	
0.001075	0.0146551	
0.00108	0.0165874	
0.001085	0.018408	
0.00109	0.0201162	
0.001095	0.0218597	
0.0011	0.0237342	
0.001105	0.0256539	
0.00111	0.0275126	
0.001115	0.0291956	
0.00112	0.0306833	
0.001125	0.0321143	
0.00113	0.0333928	
0.001135	0.0343676	
0.00114	0.0352863	
0.001145	0.0363621	
0.00115	0.0375858	
0.001155	0.0388966	
0.00116	0.0402028	
0.001165	0.0414443	
0.00117	0.0426318	
0.001175	0.0438228	
0.00118	0.0450071	
0.001185	0.0460836	
0.00119	0.0469429	
0.001195	0.047666	
0.0012	0.0484552	
0.001205	0.0493457	
0.00121	0.0502609	
0.001215	0.0511491	
0.00122	0.0519774	
0.001225	0.0527272	
0.00123	0.0534372	
0.001235	0.0541824	
0.00124	0.0549632	
0.001245	0.0557305	
0.00125	0.0564526	
0.001255	0.0571108	
0.00126	0.0577432	
0.001265	0.0584238	
0.00127	0.0591039	
0.001275	0.0597041	
0.00128	0.0602707	
0.001285	0.0607883	
0.00129	0.0612017	
0.001295	0.0615742	
0.0013	0.0619498	
0.001305	0.0623097	
0.00131	0.0626421	
0.001315	0.0629407	
0.00132	0.0631553	
0.001325	0.063257	
0.00133	0.0633268	
0.001335	0.0634199	
0.00134	0.0635239	
0.001345	0.0636302	
0.00135	0.0637331	
0.001355	0.0638287	
0.00136	0.063915	
0.001365	0.0639912	
0.00137	0.0640571	
0.001375	0.064113	
0.00138	0.0641122	
0.001385	0.0640265	
0.00139	0.0639364	
0.001395	0.0638953	
0.0014	0.0638883	
0.001405	0.0638566	
0.00141	0.0637152	
0.001415	0.063508	
0.00142	0.0633623	
0.001425	0.0632641	
0.00143	0.0630592	
0.001435	0.0626511	
0.00144	0.0620807	
0.001445	0.0614779	
0.00145	0.0609297	
0.001455	0.060396	
0.00146	0.0598494	
0.001465	0.0593203	
0.00147	0.0588277	
0.001475	0.058335	
0.00148	0.0577703	
0.001485	0.0571375	
0.00149	0.056442	
0.001495	0.0556907	
0.0015	0.0549856	
0.001505	0.0543443	
0.00151	0.0536803	
0.001515	0.0529853	
0.00152	0.0523026	
0.001525	0.0516129	
0.00153	0.050856	
0.001535	0.0500432	
0.00154	0.0492319	
0.001545	0.0484124	
0.00155	0.0475313	
0.001555	0.0466036	
0.00156	0.0456891	
0.001565	0.0448265	
0.00157	0.0439915	
0.001575	0.0431191	
0.00158	0.0422157	
0.001585	0.0413346	
0.00159	0.0405099	
0.001595	0.0397138	
0.0016	0.0388793	
0.001605	0.0379637	
0.00161	0.036943	
0.001615	0.0358536	
0.00162	0.0347706	
0.001625	0.0337429	
0.00163	0.0328003	
0.001635	0.0319584	
0.00164	0.0312228	
0.001645	0.0305444	
0.00165	0.0298409	
0.001655	0.0291064	
0.00166	0.0283864	
0.001665	0.0277098	
0.00167	0.0270465	
0.001675	0.0263281	
0.00168	0.0255599	
0.001685	0.0247951	
0.00169	0.0240213	
0.001695	0.0231831	
0.0017	0.0222945	
0.001705	0.0213671	
0.00171	0.020363	
0.001715	0.0193082	
0.00172	0.01827	
0.001725	0.0172442	
0.00173	0.01618	
0.001735	0.0150934	
0.00174	0.0140433	
0.001745	0.0130671	
0.00175	0.0121856	
0.001755	0.0113608	
0.00176	0.0105173	
0.001765	0.00965386	
0.00177	0.00877055	
0.001775	0.00782086	
0.00178	0.00682478	
0.001785	0.00584522	
0.00179	0.00492289	
0.001795	0.00408192	
0.0018	0.00333436	
0.001805	0.00263622	
0.00181	0.00186108	
0.001815	0.00097676	
0.00182	0.000109813	
0.001825	-0.000657138	
0.00183	-0.00136942	
0.001835	-0.00210703	
0.00184	-0.002874	
0.001845	-0.00362404	
0.00185	-0.00432745	
0.001855	-0.00501438	
0.00186	-0.00575302	
0.001865	-0.00653836	
0.00187	-0.00731734	
0.001875	-0.00805529	
0.00188	-0.00877882	
0.001885	-0.00955368	
0.00189	-0.0103733	
0.001895	-0.0111836	
0.0019	-0.011997	
0.001905	-0.0128216	
0.00191	-0.0135669	
0.001915	-0.0142247	
0.00192	-0.0148889	
0.001925	-0.0155732	
0.00193	-0.0162386	
0.001935	-0.01686	
0.00194	-0.0174229	
0.001945	-0.0179683	
0.00195	-0.0185713	
0.001955	-0.0192314	
0.00196	-0.0198979	
0.001965	-0.0205846	
0.00197	-0.0212996	
0.001975	-0.0219996	
0.00198	-0.0227041	
0.001985	-0.0233782	
0.00199	-0.0239053	
0.001995	-0.0243105	
0.002	-0.0246638	
0.002005	-0.0249661	
0.00201	-0.0252681	
0.002015	-0.025603	
0.00202	-0.0259439	
0.002025	-0.0262726	
0.00203	-0.0265776	
0.002035	-0.0269002	
0.00204	-0.0273142	
0.002045	-0.0277689	
0.00205	-0.0281813	
0.002055	-0.0285939	
0.00206	-0.0289871	
0.002065	-0.0293015	
0.00207	-0.0295489	
0.002075	-0.0297405	
0.00208	-0.0299337	
0.002085	-0.0301665	
0.00209	-0.0304143	
0.002095	-0.0306603	
0.0021	-0.0308934	
0.002105	-0.0311071	
0.00211	-0.0313454	
0.002115	-0.0316361	
0.00212	-0.0319002	
0.002125	-0.0320866	
0.00213	-0.0322606	
0.002135	-0.0324656	
0.00214	-0.0326815	
0.002145	-0.0329418	
0.00215	-0.0332666	
0.002155	-0.0335711	
0.00216	-0.0337527	
0.002165	-0.0337971	
0.00217	-0.033749	
0.002175	-0.0336897	
0.00218	-0.0337209	
0.002185	-0.0338103	
0.00219	-0.0338388	
0.002195	-0.0338257	
0.0022	-0.0338334	
0.002205	-0.0338069	
0.00221	-0.0337116	
0.002215	-0.0335754	
0.00222	-0.0334187	
0.002225	-0.0332559	
0.00223	-0.0330967	
0.002235	-0.0329951	
0.00224	-0.0329836	
0.002245	-0.0329847	
0.00225	-0.0328989	
0.002255	-0.0327124	
0.00226	-0.0325158	
0.002265	-0.0323693	
0.00227	-0.0322629	
0.002275	-0.0321404	
0.00228	-0.0319655	
0.002285	-0.0318119	
0.00229	-0.0316796	
0.002295	-0.0314725	
0.0023	-0.0311784	
0.002305	-0.0308408	
0.00231	-0.0304429	
0.002315	-0.029834	
0.00232	-0.0285919	
0.002325	-0.0263255	
0.00233	-0.0231583	
0.002335	-0.0194042	
0.00234	-0.0152506	
0.002345	-0.010935	
0.00235	-0.00666922	
0.002355	-0.00244782	
0.00236	0.00173475	
0.002365	0.00578899	
0.00237	0.00970944	
0.002375	0.0135464	
0.00238	0.017337	
0.002385	0.0210128	
0.00239	0.0244865	
0.002395	0.0278054	
0.0024	0.0310078	
0.002405	0.034172	
0.00241	0.0373516	
0.002415	0.0404385	
0.00242	0.0433657	
0.002425	0.0461443	
0.00243	0.0488361	
0.002435	0.051486	
0.00244	0.0539828	
0.002445	0.0562607	
0.00245	0.0584291	
0.002455	0.0605654	
0.00246	0.0626744	
0.002465	0.0647133	
0.00247	0.0666096	
0.002475	0.0683696	
0.00248	0.0700992	
0.002485	0.0718695	
0.00249	0.0736779	
0.002495	0.0755211	
0.0025	0.0773951	
0.002505	0.0792483	
0.00251	0.081	
0.002515	0.0826497	
0.00252	0.0842015	
0.002525	0.0856629	
0.00253	0.0870907	
0.002535	0.0885238	
0.00254	0.0899402	
0.002545	0.0912787	
0.00255	0.0925499	
0.002555	0.0938117	
0.00256	0.0951027	
0.002565	0.0963995	
0.00257	0.0976863	
0.002575	0.0990007	
0.00258	0.100319	
0.002585	0.101577	
0.00259	0.102735	
0.002595	0.103822	
0.0026	0.104904	
0.002605	0.10598	
0.00261	0.107	
0.002615	0.107984	
0.00262	0.108944	
0.002625	0.109843	
0.00263	0.11066	
0.002635	0.111336	
0.00264	0.111887	
0.002645	0.112378	
0.00265	0.112805	
0.002655	0.11317	
0.00266	0.113478	
0.002665	0.113779	
0.00267	0.114111	
0.002675	0.114447	
0.00268	0.114816	
0.002685	0.115287	
0.00269	0.115753	
0.002695	0.116052	
0.0027	0.116227	
0.002705	0.116359	
0.00271	0.116457	
0.002715	0.116527	
0.00272	0.116576	
0.002725	0.116609	
0.00273	0.116582	
0.002735	0.116421	
0.00274	0.11618	
0.002745	0.115946	
0.00275	0.115678	
0.002755	0.115355	
0.00276	0.115009	
0.002765	0.114666	
0.00277	0.11434	
0.002775	0.114041	
0.00278	0.113774	
0.002785	0.113541	
0.00279	0.113293	
0.002795	0.113	
0.0028	0.112691	
0.002805	0.112339	
0.00281	0.111927	
0.002815	0.111495	
0.00282	0.111071	
0.002825	0.110624	
0.00283	0.110089	
0.002835	0.109472	
0.00284	0.108784	
0.002845	0.107986	
0.00285	0.107059	
0.002855	0.105994	
0.00286	0.104843	
0.002865	0.103688	
0.00287	0.102586	
0.002875	0.10157	
0.00288	0.100613	
0.002885	0.0996909	
0.00289	0.0988838	
0.002895	0.0982381	
0.0029	0.0976817	
0.002905	0.0971156	
0.00291	0.0964747	
0.002915	0.0957197	
0.00292	0.0948777	
0.002925	0.0940182	
0.00293	0.0931402	
0.002935	0.0921965	
0.00294	0.0912065	
0.002945	0.0902329	
0.00295	0.0892686	
0.002955	0.088261	
0.00296	0.0872249	
0.002965	0.086219	
0.00297	0.0852332	
0.002975	0.0842596	
0.00298	0.0833401	
0.002985	0.0824523	
0.00299	0.0815798	
0.002995	0.0807112	
0.003	0.0797911	
0.003005	0.078833	
0.00301	0.0778952	
0.003015	0.0769677	
0.00302	0.0759957	
0.003025	0.0749452	
0.00303	0.0737977	
0.003035	0.0726404	
0.00304	0.0715789	
0.003045	0.0705834	
0.00305	0.0696308	
0.003055	0.0687516	
0.00306	0.0679148	
0.003065	0.0670506	
0.00307	0.0661615	
0.003075	0.0652506	
0.00308	0.0642733	
0.003085	0.063251	
0.00309	0.0621997	
0.003095	0.061084	
0.0031	0.0599311	
0.003105	0.0588082	
0.00311	0.0577582	
0.003115	0.0567583	
0.00312	0.0557437	
0.003125	0.0547199	
0.00313	0.0537385	
0.003135	0.0527838	
0.00314	0.0517969	
0.003145	0.0507879	
0.00315	0.049812	
0.003155	0.0488566	
0.00316	0.0479123	
0.003165	0.0469725	
0.00317	0.0459851	
0.003175	0.0450129	
0.00318	0.0440968	
0.003185	0.0431659	
0.00319	0.0422217	
0.003195	0.0413135	
0.0032	0.0404719	
0.003205	0.0396665	
0.00321	0.038828	
0.003215	0.0379598	
0.00322	0.0370655	
0.003225	0.0361013	
0.00323	0.0350891	
0.003235	0.034093	
0.00324	0.0331547	
0.003245	0.0322989	
0.00325	0.0314904	
0.003255	0.0307039	
0.00326	0.0300165	
0.003265	0.029427	
0.00327	0.0288349	
0.003275	0.0282215	
0.00328	0.0276231	
0.003285	0.0270154	
0.00329	0.0263351	
0.003295	0.0255918	
0.0033	0.0248419	
0.003305	0.0241232	
0.00331	0.0234115	
0.003315	0.0226431	
0.00332	0.021826	
0.003325	0.0210156	
0.00333	0.0202478	
0.003335	0.0195444	
0.00334	0.0189168	
0.003345	0.0183689	
0.00335	0.0178993	
0.003355	0.0175037	
0.00336	0.017128	
0.003365	0.0166881	
0.00337	0.0161317	
0.003375	0.0155247	
0.00338	0.0150082	
0.003385	0.0145757	
0.00339	0.0141716	
0.003395	0.0138053	
0.0034	0.0134812	
0.003405	0.0131528	
0.00341	0.012742	
0.003415	0.0122487	
0.00342	0.0117245	
0.003425	0.0112045	
0.00343	0.0107121	
0.003435	0.010261	
0.00344	0.00985851	
0.003445	0.00950715	
0.00345	0.0092061	
0.003455	0.00895246	
0.00346	0.00874208	
0.003465	0.00847509	
0.00347	0.00808835	
0.003475	0.00768847	
0.00348	0.00734638	
0.003485	0.00705857	
0.00349	0.00682016	
0.003495	0.00667313	
0.0035	0.00659332	
0.003505	0.00646652	
0.00351	0.00626721	
0.003515	0.00602951	
0.00352	0.00577775	
0.003525	0.00562368	
0.00353	0.0056364	
0.003535	0.00566341	
0.00354	0.00560349	
0.003545	0.00548909	
0.00355	0.00534419	
0.003555	0.00518602	
0.00356	0.00512166	
0.003565	0.00521726	
0.00357	0.00531874	
0.003575	0.00532423	
0.00358	0.00526617	
0.003585	0.00516895	
0.00359	0.00505051	
0.003595	0.00492368	
0.0036	0.00484486	
0.003605	0.00484895	
0.00361	0.00490751	
0.003615	0.00504676	
0.00362	0.00532769	
0.003625	0.00573628	
0.00363	0.00616219	
0.003635	0.00653184	
0.00364	0.00684691	
0.003645	0.00711108	
0.00365	0.00732921	
0.003655	0.00750666	
0.00366	0.0076489	
0.003665	0.00780872	
0.00367	0.00811519	
0.003675	0.00864646	
0.00368	0.00939589	
0.003685	0.0103963	
0.00369	0.0116576	
0.003695	0.0130786	
0.0037	0.0145854	
0.003705	0.0162675	
0.00371	0.0181759	
0.003715	0.0200956	
0.00372	0.021932	
0.003725	0.0238643	
0.00373	0.0259586	
0.003735	0.0282032	
0.00374	0.0305834	
0.003745	0.0329879	
0.00375	0.0353423	
0.003755	0.0376474	
0.00376	0.0399059	
0.003765	0.0421221	
0.00377	0.0443005	
0.003775	0.0464461	
0.00378	0.0485637	
0.003785	0.0506577	
0.00379	0.0527321	
0.003795	0.0547907	
0.0038	0.0567889	
0.003805	0.0586528	
0.00381	0.0604351	
0.003815	0.0622695	
0.00382	0.0640989	
0.003825	0.065791	
0.00383	0.06736	
0.003835	0.0688213	
0.00384	0.0701424	
0.003845	0.0713561	
0.00385	0.0725366	
0.003855	0.073687	
0.00386	0.0747631	
0.003865	0.0757869	
0.00387	0.0768704	
0.003875	0.078037	
0.00388	0.0791557	
0.003885	0.08019	
0.00389	0.0812147	
0.003895	0.0822797	
0.0039	0.083416	
0.003905	0.0845455	
0.00391	0.0855221	
0.003915	0.0863041	
0.00392	0.0869684	
0.003925	0.0876187	
0.00393	0.0883241	
0.003935	0.08908	
0.00394	0.0897859	
0.003945	0.090378	
0.00395	0.0908669	
0.003955	0.0912647	
0.00396	0.0916312	
0.003965	0.0920548	
0.00397	0.0925435	
0.003975	0.0930044	
0.00398	0.0933303	
0.003985	0.0935516	
0.00399	0.0937411	
0.003995	0.0939006	
0.004	0.0940804	
0.004005	0.0943125	
0.00401	0.0946157	
0.004015	0.094999	
0.00402	0.0953219	
0.004025	0.0954946	
0.00403	0.0956077	
0.004035	0.095676	
0.00404	0.0956167	
0.004045	0.0954759	
0.00405	0.0953831	
0.004055	0.0953739	
0.00406	0.0953728	
0.004065	0.0952819	
0.00407	0.0950886	
0.004075	0.094837	
0.00408	0.0945587	
0.004085	0.0942761	
0.00409	0.094004	
0.004095	0.0937992	
0.0041	0.0936484	
0.004105	0.0933979	
0.00411	0.0929983	
0.004115	0.0925193	
0.00412	0.0919632	
0.004125	0.0913348	
0.00413	0.0907362	
0.004135	0.0901855	
0.00414	0.0895973	
0.004145	0.0889172	
0.00415	0.0881135	
0.004155	0.0872189	
0.00416	0.0863066	
0.004165	0.0854259	
0.00417	0.0846075	
0.004175	0.0838215	
0.00418	0.0829989	
0.004185	0.0821435	
0.00419	0.0813071	
0.004195	0.0804751	
0.0042	0.0795903	
0.004205	0.078665	
0.00421	0.0777093	
0.004215	0.0766836	
0.00422	0.0756128	
0.004225	0.0745628	
0.00423	0.0735763	
0.004235	0.0726307	
0.00424	0.0716618	
0.004245	0.0706282	
0.00425	0.0695059	
0.004255	0.068378	
0.00426	0.0673475	
0.004265	0.0663823	
0.00427	0.0655533	
0.004275	0.064901	
0.00428	0.0642058	
0.004285	0.0633251	
0.00429	0.0622686	
0.004295	0.0610512	
0.0043	0.0597377	
0.004305	0.0584229	
0.00431	0.0571696	
0.004315	0.056016	
0.00432	0.0548876	
0.004325	0.0537342	
0.00433	0.0526188	
0.004335	0.0515338	
0.00434	0.05052	
0.004345	0.0496012	
0.00435	0.0486458	
0.004355	0.0476165	
0.00436	0.0465871	
0.004365	0.0455588	
0.00437	0.0444848	
0.004375	0.0433838	
0.00438	0.0422698	
0.004385	0.0411046	
0.00439	0.0398658	
0.004395	0.0385895	
0.0044	0.0373964	
0.004405	0.0363145	
0.00441	0.0352146	
0.004415	0.0340598	
0.00442	0.0329233	
0.004425	0.0317576	
0.00443	0.0305327	
0.004435	0.0293268	
0.00444	0.0281428	
0.004445	0.0269818	
0.00445	0.0258432	
0.004455	0.0246783	
0.00446	0.0235036	
0.004465	0.022378	
0.00447	0.0213379	
0.004475	0.0204035	
0.00448	0.0194878	
0.004485	0.0184853	
0.00449	0.0174253	
0.004495	0.0163776	
0.0045	0.015435	
0.004505	0.0146064	
0.00451	0.0137495	
0.004515	0.0128194	
0.00452	0.011885	
0.004525	0.0109445	
0.00453	0.00999687	
0.004535	0.00908936	
0.00454	0.00825124	
0.004545	0.00745097	
0.00455	0.00661844	
0.004555	0.00575648	
0.00456	0.00486835	
0.004565	0.0039099	
0.00457	0.00290288	
0.004575	0.00186393	
0.00458	0.000758	
0.004585	-0.000387321	
0.00459	-0.00145691	
0.004595	-0.00237844	
0.0046	-0.00325383	
0.004605	-0.00415247	
0.00461	-0.00502394	
0.004615	-0.0058838	
0.00462	-0.00669534	
0.004625	-0.00738911	
0.00463	-0.00801994	
0.004635	-0.00862697	
0.00464	-0.00923714	
0.004645	-0.00991558	
0.00465	-0.0106545	
0.004655	-0.0113983	
0.00466	-0.0121102	
0.004665	-0.0128149	
0.00467	-0.0135291	
0.004675	-0.0141681	
0.00468	-0.01468	
0.004685	-0.0151312	
0.00469	-0.0156162	
0.004695	-0.0161481	
0.0047	-0.0167333	
0.004705	-0.017421	
0.00471	-0.0181913	
0.004715	-0.0189796	
0.00472	-0.0197426	
0.004725	-0.0204527	
0.00473	-0.0210944	
0.004735	-0.0217081	
0.00474	-0.022322	
0.004745	-0.0229069	
0.00475	-0.0234925	
0.004755	-0.024051	
0.00476	-0.0245176	
0.004765	-0.024949	
0.00477	-0.0253845	
0.004775	-0.025897	
0.00478	-0.0265788	
0.004785	-0.0273398	
0.00479	-0.0280696	
0.004795	-0.0286968	
0.0048	-0.0291315	
0.004805	-0.0294189	
0.00481	-0.0296905	
0.004815	-0.0299864	
0.00482	-0.0302843	
0.004825	-0.0305695	
0.00483	-0.0308329	
0.004835	-0.0311168	
0.00484	-0.031496	
0.004845	-0.0319201	
0.00485	-0.0322586	
0.004855	-0.0324772	
0.00486	-0.0326064	
0.004865	-0.0326705	
0.00487	-0.0326886	
0.004875	-0.0326756	
0.00488	-0.0326427	
0.004885	-0.0325982	
0.00489	-0.0325482	
0.004895	-0.0324969	
0.0049	-0.0324471	
0.004905	-0.0324008	
0.00491	-0.0323589	
0.004915	-0.0323219	
0.00492	-0.0322899	
0.004925	-0.0323102	
0.00493	-0.0324592	
0.004935	-0.0326859	
0.00494	-0.032858	
0.004945	-0.0329386	
0.00495	-0.0329549	
0.004955	-0.0329281	
0.00496	-0.0328741	
0.004965	-0.0327573	
0.00497	-0.032557	
0.004975	-0.0323586	
0.00498	-0.0322185	
0.004985	-0.0321233	
0.00499	-0.0320624	
0.004995	-0.0320269	
0.005	-0.0320098	
0.005005	-0.0320056	
0.00501	-0.0319627	
0.005015	-0.0318012	
0.00502	-0.0315691	
0.005025	-0.031349	
0.00503	-0.0310996	
0.005035	-0.0307477	
0.00504	-0.0299646	
0.005045	-0.0283637	
0.00505	-0.0261093	
0.005055	-0.0235305	
0.00506	-0.0207648	
0.005065	-0.0179116	
0.00507	-0.0149931	
0.005075	-0.0120269	
