Time - Plot 0	Amplitude - Plot 0	
0	0.0518061	
5E-6	0.050758	
1E-5	0.0497102	
1.5E-5	0.0486171	
2E-5	0.0474983	
2.5E-5	0.046368	
3E-5	0.0452359	
3.5E-5	0.0441563	
4E-5	0.0430673	
4.5E-5	0.0418809	
5E-5	0.0406389	
5.5E-5	0.039419	
6E-5	0.0382239	
6.5E-5	0.037054	
7E-5	0.0360037	
7.5E-5	0.0351295	
8E-5	0.0343651	
8.5E-5	0.0335667	
9E-5	0.032641	
9.5E-5	0.0316277	
0.0001	0.0306045	
0.000105	0.0296232	
0.00011	0.0286684	
0.000115	0.0276811	
0.00012	0.0266716	
0.000125	0.0256477	
0.00013	0.0245676	
0.000135	0.023454	
0.00014	0.0223235	
0.000145	0.0211402	
0.00015	0.0199306	
0.000155	0.0187607	
0.00016	0.0176725	
0.000165	0.016642	
0.00017	0.0156983	
0.000175	0.0148565	
0.00018	0.0139791	
0.000185	0.0130246	
0.00019	0.0120169	
0.000195	0.0110217	
0.0002	0.0101295	
0.000205	0.00929983	
0.00021	0.00850306	
0.000215	0.00776567	
0.00022	0.00705479	
0.000225	0.00629994	
0.00023	0.00550426	
0.000235	0.00467176	
0.00024	0.00375928	
0.000245	0.00278971	
0.00025	0.00182833	
0.000255	0.000870303	
0.00026	-0.000135277	
0.000265	-0.00117218	
0.00027	-0.0021807	
0.000275	-0.0031228	
0.00028	-0.00402409	
0.000285	-0.0049509	
0.00029	-0.00589825	
0.000295	-0.00681433	
0.0003	-0.00766646	
0.000305	-0.00843613	
0.00031	-0.00916255	
0.000315	-0.00992118	
0.00032	-0.0107127	
0.000325	-0.0114884	
0.00033	-0.0122171	
0.000335	-0.0128803	
0.00034	-0.0135165	
0.000345	-0.0141998	
0.00035	-0.0149294	
0.000355	-0.0156551	
0.00036	-0.0163438	
0.000365	-0.0169756	
0.00037	-0.0175875	
0.000375	-0.0182524	
0.00038	-0.0189208	
0.000385	-0.0195124	
0.00039	-0.0200729	
0.000395	-0.0206339	
0.0004	-0.0212162	
0.000405	-0.0218802	
0.00041	-0.022614	
0.000415	-0.0233593	
0.00042	-0.0241244	
0.000425	-0.0249614	
0.00043	-0.0258538	
0.000435	-0.0267405	
0.00044	-0.0275815	
0.000445	-0.0283526	
0.00045	-0.0290412	
0.000455	-0.0296427	
0.00046	-0.0302059	
0.000465	-0.0308124	
0.00047	-0.0314662	
0.000475	-0.0321202	
0.00048	-0.032696	
0.000485	-0.0331454	
0.00049	-0.0335377	
0.000495	-0.033969	
0.0005	-0.0345005	
0.000505	-0.0351206	
0.00051	-0.0357222	
0.000515	-0.0361881	
0.00052	-0.0365425	
0.000525	-0.0369017	
0.00053	-0.037247	
0.000535	-0.0374718	
0.00054	-0.0376065	
0.000545	-0.0377705	
0.00055	-0.0379936	
0.000555	-0.0382451	
0.00056	-0.0385034	
0.000565	-0.038754	
0.00057	-0.0389877	
0.000575	-0.0391992	
0.00058	-0.0394335	
0.000585	-0.0397194	
0.00059	-0.0399782	
0.000595	-0.0401594	
0.0006	-0.0402808	
0.000605	-0.0403571	
0.00061	-0.0404	
0.000615	-0.0404189	
0.00062	-0.0404211	
0.000625	-0.0404121	
0.00063	-0.0403962	
0.000635	-0.0403764	
0.00064	-0.0403551	
0.000645	-0.0403338	
0.00065	-0.0402659	
0.000655	-0.040123	
0.00066	-0.0399374	
0.000665	-0.0397324	
0.00067	-0.0395719	
0.000675	-0.0394483	
0.00068	-0.0392598	
0.000685	-0.0388473	
0.00069	-0.0380213	
0.000695	-0.0368668	
0.0007	-0.0356454	
0.000705	-0.034485	
0.00071	-0.0333724	
0.000715	-0.0322012	
0.00072	-0.0308566	
0.000725	-0.0293187	
0.00073	-0.0276786	
0.000735	-0.0256683	
0.00074	-0.0227961	
0.000745	-0.0191586	
0.00075	-0.0150935	
0.000755	-0.0107962	
0.00076	-0.00645387	
0.000765	-0.00219224	
0.00077	0.00190971	
0.000775	0.00580744	
0.00078	0.00943369	
0.000785	0.012757	
0.00079	0.0158184	
0.000795	0.0186098	
0.0008	0.0211388	
0.000805	0.0235178	
0.00081	0.0258279	
0.000815	0.0280308	
0.00082	0.0300589	
0.000825	0.0319234	
0.00083	0.0336868	
0.000835	0.0353478	
0.00084	0.0369102	
0.000845	0.0384287	
0.00085	0.039894	
0.000855	0.041255	
0.00086	0.0425303	
0.000865	0.0438314	
0.00087	0.0452306	
0.000875	0.0466759	
0.00088	0.0480831	
0.000885	0.0493987	
0.00089	0.0506392	
0.000895	0.0518666	
0.0009	0.0531224	
0.000905	0.054385	
0.00091	0.0555448	
0.000915	0.0565346	
0.00092	0.0574128	
0.000925	0.0582236	
0.00093	0.058904	
0.000935	0.0595138	
0.00094	0.0601908	
0.000945	0.0609276	
0.00095	0.0617166	
0.000955	0.0625501	
0.00096	0.0633736	
0.000965	0.0641516	
0.00097	0.0648627	
0.000975	0.0654961	
0.00098	0.0660959	
0.000985	0.0666927	
0.00099	0.0672592	
0.000995	0.067779	
0.001	0.0682434	
0.001005	0.0686969	
0.00101	0.0691692	
0.001015	0.0696316	
0.00102	0.0700657	
0.001025	0.0704605	
0.00103	0.0708107	
0.001035	0.071115	
0.00104	0.0714221	
0.001045	0.0718117	
0.00105	0.0722371	
0.001055	0.0725711	
0.00106	0.072829	
0.001065	0.0730719	
0.00107	0.0732936	
0.001075	0.0734908	
0.00108	0.0736625	
0.001085	0.0738567	
0.00109	0.0740567	
0.001095	0.074156	
0.0011	0.0741366	
0.001105	0.0739923	
0.00111	0.0737249	
0.001115	0.0734367	
0.00112	0.0731958	
0.001125	0.0729975	
0.00113	0.0728367	
0.001135	0.0727082	
0.00114	0.0725596	
0.001145	0.0723572	
0.00115	0.0721288	
0.001155	0.0718467	
0.00116	0.0714949	
0.001165	0.0711138	
0.00117	0.0707314	
0.001175	0.0703187	
0.00118	0.0698105	
0.001185	0.0692158	
0.00119	0.0685922	
0.001195	0.0679791	
0.0012	0.0673543	
0.001205	0.0667038	
0.00121	0.0661147	
0.001215	0.0656415	
0.00122	0.0652195	
0.001225	0.0647562	
0.00123	0.06424	
0.001235	0.0637134	
0.00124	0.0632048	
0.001245	0.0626846	
0.00125	0.0621339	
0.001255	0.0616365	
0.00126	0.0611979	
0.001265	0.0606762	
0.00127	0.0599817	
0.001275	0.0591587	
0.00128	0.0582898	
0.001285	0.0574317	
0.00129	0.0565739	
0.001295	0.0557093	
0.0013	0.054881	
0.001305	0.0540684	
0.00131	0.0532095	
0.001315	0.0522655	
0.00132	0.0512151	
0.001325	0.0500492	
0.00133	0.0488146	
0.001335	0.0475932	
0.00134	0.0463907	
0.001345	0.04521	
0.00135	0.0440995	
0.001355	0.0430404	
0.00136	0.0420176	
0.001365	0.0410671	
0.00137	0.0402094	
0.001375	0.0394057	
0.00138	0.0385807	
0.001385	0.0376856	
0.00139	0.0366915	
0.001395	0.0356316	
0.0014	0.0345784	
0.001405	0.033532	
0.00141	0.0324445	
0.001415	0.0313813	
0.00142	0.0304319	
0.001425	0.0295549	
0.00143	0.0286722	
0.001435	0.0277322	
0.00144	0.0267515	
0.001445	0.0257428	
0.00145	0.0246682	
0.001455	0.0235535	
0.00146	0.0224651	
0.001465	0.0214455	
0.00147	0.0204719	
0.001475	0.0194797	
0.00148	0.0185221	
0.001485	0.0176801	
0.00149	0.0169067	
0.001495	0.01612	
0.0015	0.0152667	
0.001505	0.0143623	
0.00151	0.0134194	
0.001515	0.0124007	
0.00152	0.0113326	
0.001525	0.0102825	
0.00153	0.00934149	
0.001535	0.00851688	
0.00154	0.00766541	
0.001545	0.00674145	
0.00155	0.00581339	
0.001555	0.00487898	
0.00156	0.00388952	
0.001565	0.00286301	
0.00157	0.00186064	
0.001575	0.000874048	
0.00158	-0.00015054	
0.001585	-0.00119926	
0.00159	-0.00221429	
0.001595	-0.00320662	
0.0016	-0.00423214	
0.001605	-0.00527856	
0.00161	-0.00624173	
0.001615	-0.00705693	
0.00162	-0.00783108	
0.001625	-0.00882675	
0.00163	-0.0101115	
0.001635	-0.0113836	
0.00164	-0.0124444	
0.001645	-0.0133159	
0.00165	-0.0140687	
0.001655	-0.0148029	
0.00166	-0.0155375	
0.001665	-0.0162377	
0.00167	-0.0168821	
0.001675	-0.0174591	
0.00168	-0.017917	
0.001685	-0.0182747	
0.00169	-0.0186444	
0.001695	-0.0190046	
0.0017	-0.0192939	
0.001705	-0.0195703	
0.00171	-0.0199203	
0.001715	-0.0203497	
0.00172	-0.0208112	
0.001725	-0.0213195	
0.00173	-0.0219298	
0.001735	-0.0226259	
0.00174	-0.0233457	
0.001745	-0.0240947	
0.00175	-0.0248749	
0.001755	-0.0255914	
0.00176	-0.0262319	
0.001765	-0.0268395	
0.00177	-0.0273968	
0.001775	-0.027942	
0.00178	-0.0285011	
0.001785	-0.0290427	
0.00179	-0.0295474	
0.001795	-0.0300513	
0.0018	-0.0305783	
0.001805	-0.0310958	
0.00181	-0.0316299	
0.001815	-0.0321974	
0.00182	-0.0327599	
0.001825	-0.0332451	
0.00183	-0.0336088	
0.001835	-0.0340178	
0.00184	-0.0345799	
0.001845	-0.0351213	
0.00185	-0.0355284	
0.001855	-0.0358277	
0.00186	-0.0360417	
0.001865	-0.036237	
0.00187	-0.0365057	
0.001875	-0.0368576	
0.00188	-0.0372478	
0.001885	-0.0376447	
0.00189	-0.0379798	
0.001895	-0.0382107	
0.0019	-0.0384096	
0.001905	-0.0386255	
0.00191	-0.0387948	
0.001915	-0.0388778	
0.00192	-0.0389001	
0.001925	-0.0388337	
0.00193	-0.0388071	
0.001935	-0.0389505	
0.00194	-0.038724	
0.001945	-0.0374561	
0.00195	-0.0351337	
0.001955	-0.0320358	
0.00196	-0.0284305	
0.001965	-0.024566	
0.00197	-0.0206184	
0.001975	-0.0166601	
0.00198	-0.0127394	
0.001985	-0.00893373	
0.00199	-0.00528894	
0.001995	-0.00182752	
0.002	0.00144436	
0.002005	0.00453157	
0.00201	0.00744609	
0.002015	0.010204	
0.00202	0.0128232	
0.002025	0.0153222	
0.00203	0.0177187	
0.002035	0.0200295	
0.00204	0.0222695	
0.002045	0.0244044	
0.00205	0.0264166	
0.002055	0.0283477	
0.00206	0.0302292	
0.002065	0.0321315	
0.00207	0.0341002	
0.002075	0.0360671	
0.00208	0.0379397	
0.002085	0.0397092	
0.00209	0.0414696	
0.002095	0.0432833	
0.0021	0.045094	
0.002105	0.046817	
0.00211	0.0484482	
0.002115	0.0500368	
0.00212	0.0515698	
0.002125	0.0529935	
0.00213	0.0543254	
0.002135	0.0556289	
0.00214	0.0568994	
0.002145	0.0581358	
0.00215	0.0593386	
0.002155	0.0604624	
0.00216	0.0615285	
0.002165	0.0626012	
0.00217	0.0637227	
0.002175	0.0648707	
0.00218	0.0659819	
0.002185	0.0670639	
0.00219	0.0681705	
0.002195	0.069336	
0.0022	0.0705328	
0.002205	0.0716937	
0.00221	0.0728234	
0.002215	0.0739267	
0.00222	0.0749605	
0.002225	0.075947	
0.00223	0.0769983	
0.002235	0.0781376	
0.00224	0.0792812	
0.002245	0.0804209	
0.00225	0.0815518	
0.002255	0.0826233	
0.00226	0.0836051	
0.002265	0.0844812	
0.00227	0.0852461	
0.002275	0.0859017	
0.00228	0.0864541	
0.002285	0.0869599	
0.00229	0.0875061	
0.002295	0.0881007	
0.0023	0.088699	
0.002305	0.0892715	
0.00231	0.0897998	
0.002315	0.0902742	
0.00232	0.0907379	
0.002325	0.0912203	
0.00233	0.0916447	
0.002335	0.0919632	
0.00234	0.0922443	
0.002345	0.0925826	
0.00235	0.0929425	
0.002355	0.0932522	
0.00236	0.0935617	
0.002365	0.0939038	
0.00237	0.0942514	
0.002375	0.0945861	
0.00238	0.0948965	
0.002385	0.0951761	
0.00239	0.0954223	
0.002395	0.0955872	
0.0024	0.0956432	
0.002405	0.0957198	
0.00241	0.0959015	
0.002415	0.0960963	
0.00242	0.0961954	
0.002425	0.0961793	
0.00243	0.0961355	
0.002435	0.0960755	
0.00244	0.0959125	
0.002445	0.0956419	
0.00245	0.0953606	
0.002455	0.0951332	
0.00246	0.0949044	
0.002465	0.0946381	
0.00247	0.094312	
0.002475	0.0939145	
0.00248	0.0935361	
0.002485	0.0932359	
0.00249	0.0930013	
0.002495	0.0928212	
0.0025	0.0926379	
0.002505	0.0923662	
0.00251	0.0920014	
0.002515	0.0915925	
0.00252	0.091174	
0.002525	0.0907688	
0.00253	0.0903916	
0.002535	0.0900031	
0.00254	0.0895306	
0.002545	0.0889774	
0.00255	0.0883972	
0.002555	0.0877791	
0.00256	0.0870702	
0.002565	0.0862874	
0.00257	0.0854929	
0.002575	0.0847282	
0.00258	0.0840195	
0.002585	0.0833335	
0.00259	0.0826	
0.002595	0.0818222	
0.0026	0.0810045	
0.002605	0.0801042	
0.00261	0.0791443	
0.002615	0.0781907	
0.00262	0.0772387	
0.002625	0.0762852	
0.00263	0.0753759	
0.002635	0.0744912	
0.00264	0.0735695	
0.002645	0.0725719	
0.00265	0.071524	
0.002655	0.0705874	
0.00266	0.0698161	
0.002665	0.0690002	
0.00267	0.0680508	
0.002675	0.0670583	
0.00268	0.0660843	
0.002685	0.065121	
0.00269	0.0641154	
0.002695	0.0630818	
0.0027	0.0620786	
0.002705	0.061143	
0.00271	0.0602487	
0.002715	0.0592812	
0.00272	0.0582162	
0.002725	0.0571373	
0.00273	0.0560527	
0.002735	0.0549205	
0.00274	0.053668	
0.002745	0.0522052	
0.00275	0.0506254	
0.002755	0.0491383	
0.00276	0.0477826	
0.002765	0.0465301	
0.00277	0.0454049	
0.002775	0.0443694	
0.00278	0.0433469	
0.002785	0.0423337	
0.00279	0.0413272	
0.002795	0.0402775	
0.0028	0.0392015	
0.002805	0.0381115	
0.00281	0.0369688	
0.002815	0.0358453	
0.00282	0.0348352	
0.002825	0.0338526	
0.00283	0.0327919	
0.002835	0.0316825	
0.00284	0.0305933	
0.002845	0.029569	
0.00285	0.0285884	
0.002855	0.0275879	
0.00286	0.0265266	
0.002865	0.0254278	
0.00287	0.0243563	
0.002875	0.0232584	
0.00288	0.0220999	
0.002885	0.0209563	
0.00289	0.019829	
0.002895	0.0187183	
0.0029	0.0176711	
0.002905	0.0167152	
0.00291	0.0158648	
0.002915	0.0150766	
0.00292	0.0142717	
0.002925	0.0134462	
0.00293	0.0125987	
0.002935	0.0116817	
0.00294	0.0107147	
0.002945	0.00971292	
0.00295	0.00859303	
0.002955	0.00735313	
0.00296	0.00614029	
0.002965	0.00505019	
0.00297	0.00404504	
0.002975	0.00304838	
0.00298	0.00205691	
0.002985	0.00111576	
0.00299	0.000252311	
0.002995	-0.000566611	
0.003	-0.00141251	
0.003005	-0.00228372	
0.00301	-0.00313042	
0.003015	-0.0039209	
0.00302	-0.00468447	
0.003025	-0.00548925	
0.00303	-0.00633067	
0.003035	-0.00715646	
0.00304	-0.00793287	
0.003045	-0.00868755	
0.00305	-0.00934466	
0.003055	-0.00985884	
0.00306	-0.0104446	
0.003065	-0.0111449	
0.00307	-0.0118876	
0.003075	-0.0127182	
0.00308	-0.0136151	
0.003085	-0.0145131	
0.00309	-0.0153695	
0.003095	-0.0162055	
0.0031	-0.0170835	
0.003105	-0.0179953	
0.00311	-0.0188386	
0.003115	-0.0195494	
0.00312	-0.0201867	
0.003125	-0.0208406	
0.00313	-0.0215219	
0.003135	-0.0221891	
0.00314	-0.0228629	
0.003145	-0.0235569	
0.00315	-0.0242312	
0.003155	-0.0248608	
0.00316	-0.0254785	
0.003165	-0.0261543	
0.00317	-0.0269791	
0.003175	-0.0279581	
0.00318	-0.0288975	
0.003185	-0.0296712	
0.00319	-0.0303466	
0.003195	-0.0309729	
0.0032	-0.0314895	
0.003205	-0.0318619	
0.00321	-0.0321691	
0.003215	-0.0325138	
0.00322	-0.0329146	
0.003225	-0.0333333	
0.00323	-0.0337441	
0.003235	-0.0341302	
0.00324	-0.0344817	
0.003245	-0.0347939	
0.00325	-0.0350653	
0.003255	-0.0352971	
0.00326	-0.0354917	
0.003265	-0.0357001	
0.00327	-0.0359553	
0.003275	-0.0362294	
0.00328	-0.0365504	
0.003285	-0.0369347	
0.00329	-0.037295	
0.003295	-0.0375275	
0.0033	-0.0376646	
0.003305	-0.0378274	
0.00331	-0.038047	
0.003315	-0.0382937	
0.00332	-0.0385466	
0.003325	-0.038744	
0.00333	-0.038848	
0.003335	-0.0389331	
0.00334	-0.0390491	
0.003345	-0.0391801	
0.00335	-0.0392672	
0.003355	-0.0392738	
0.00336	-0.0392744	
0.003365	-0.0392711	
0.00337	-0.0392179	
0.003375	-0.0391817	
0.00338	-0.0392536	
0.003385	-0.0393934	
0.00339	-0.0394286	
0.003395	-0.0393458	
0.0034	-0.0392366	
0.003405	-0.0390676	
0.00341	-0.0388196	
0.003415	-0.0385313	
0.00342	-0.0382301	
0.003425	-0.0379345	
0.00343	-0.0376567	
0.003435	-0.0374037	
0.00344	-0.0371791	
0.003445	-0.0369838	
0.00345	-0.036817	
0.003455	-0.0366294	
0.00346	-0.0363419	
0.003465	-0.0360022	
0.00347	-0.035644	
0.003475	-0.0353381	
0.00348	-0.0351763	
0.003485	-0.034927	
0.00349	-0.0343941	
0.003495	-0.0336044	
0.0035	-0.0325876	
0.003505	-0.0313266	
0.00351	-0.029774	
0.003515	-0.0277224	
0.00352	-0.0250109	
0.003525	-0.0219451	
0.00353	-0.0187431	
0.003535	-0.01527	
0.00354	-0.0115448	
0.003545	-0.00778204	
0.00355	-0.00417242	
0.003555	-0.000786996	
0.00356	0.00238556	
0.003565	0.0052677	
0.00357	0.00782204	
0.003575	0.0102296	
0.00358	0.0126166	
0.003585	0.0149722	
0.00359	0.0172909	
0.003595	0.019523	
0.0036	0.0216399	
0.003605	0.0236284	
0.00361	0.0254382	
0.003615	0.0271871	
0.00362	0.0290032	
0.003625	0.0307779	
0.00363	0.0323937	
0.003635	0.0338759	
0.00364	0.0352949	
0.003645	0.0367002	
0.00365	0.0381252	
0.003655	0.0395907	
0.00366	0.0411087	
0.003665	0.0426371	
0.00367	0.0441001	
0.003675	0.0454507	
0.00368	0.0467108	
0.003685	0.0478993	
0.00369	0.0489368	
0.003695	0.0498256	
0.0037	0.0506694	
0.003705	0.0514913	
0.00371	0.0522597	
0.003715	0.0529566	
0.00372	0.0536208	
0.003725	0.0543273	
0.00373	0.0550756	
0.003735	0.0558162	
0.00374	0.0565166	
0.003745	0.0571575	
0.00375	0.0577287	
0.003755	0.0582271	
0.00376	0.0586538	
0.003765	0.059013	
0.00377	0.0593109	
0.003775	0.0595541	
0.00378	0.0598449	
0.003785	0.0602959	
0.00379	0.0608312	
0.003795	0.0613492	
0.0038	0.0618789	
0.003805	0.0624388	
0.00381	0.062897	
0.003815	0.0631714	
0.00382	0.0633592	
0.003825	0.0635285	
0.00383	0.0636777	
0.003835	0.0638065	
0.00384	0.0639158	
0.003845	0.0639595	
0.00385	0.0638629	
0.003855	0.0636782	
0.00386	0.0635394	
0.003865	0.0634373	
0.00387	0.0633643	
0.003875	0.0633614	
0.00388	0.0633099	
0.003885	0.0631336	
0.00389	0.0628834	
0.003895	0.0625964	
0.0039	0.0622985	
0.003905	0.0620077	
0.00391	0.0617353	
0.003915	0.0614403	
0.00392	0.0610969	
0.003925	0.0607377	
0.00393	0.0603377	
0.003935	0.0598821	
0.00394	0.0594114	
0.003945	0.058953	
0.00395	0.0584769	
0.003955	0.057964	
0.00396	0.0574512	
0.003965	0.0569152	
0.00397	0.0563416	
0.003975	0.0557705	
0.00398	0.0551804	
0.003985	0.0545106	
0.00399	0.053725	
0.003995	0.0528525	
0.004	0.0520116	
0.004005	0.0512313	
0.00401	0.0504328	
0.004015	0.0496125	
0.00402	0.0488166	
0.004025	0.048027	
0.00403	0.0471838	
0.004035	0.0462975	
0.00404	0.0453773	
0.004045	0.0444306	
0.00405	0.0435113	
0.004055	0.042606	
0.00406	0.0416577	
0.004065	0.0406308	
0.00407	0.0395531	
0.004075	0.0384929	
0.00408	0.0374468	
0.004085	0.0364595	
0.00409	0.0356052	
0.004095	0.034784	
0.0041	0.0339283	
0.004105	0.0330904	
0.00411	0.0323038	
0.004115	0.0315407	
0.00412	0.0307342	
0.004125	0.0298896	
0.00413	0.0290123	
0.004135	0.0280599	
0.00414	0.0270555	
0.004145	0.0260643	
0.00415	0.0251287	
0.004155	0.0242264	
0.00416	0.0232938	
0.004165	0.0223377	
0.00417	0.0213638	
0.004175	0.020139	
0.00418	0.0185691	
0.004185	0.017036	
0.00419	0.0157898	
0.004195	0.0147442	
0.0042	0.0137852	
0.004205	0.0128812	
0.00421	0.0120562	
0.004215	0.0113223	
0.00422	0.0106356	
0.004225	0.00991749	
0.00423	0.00916507	
0.004235	0.00842563	
0.00424	0.00772971	
0.004245	0.00704786	
0.00425	0.00631248	
0.004255	0.00552905	
0.00426	0.00475099	
0.004265	0.00396573	
0.00427	0.0031178	
0.004275	0.00222112	
0.00428	0.0013347	
0.004285	0.000496978	
0.00429	-0.000316551	
0.004295	-0.00117072	
0.0043	-0.00205882	
0.004305	-0.00292729	
0.00431	-0.00374174	
0.004315	-0.00448205	
0.00432	-0.00513846	
0.004325	-0.00575604	
0.00433	-0.00641388	
0.004335	-0.00716222	
0.00434	-0.00802991	
0.004345	-0.00898278	
0.00435	-0.00994675	
0.004355	-0.0108724	
0.00436	-0.0117767	
0.004365	-0.0126715	
0.00437	-0.0135178	
0.004375	-0.0143396	
0.00438	-0.0151539	
0.004385	-0.0159248	
0.00439	-0.0168683	
0.004395	-0.0181661	
0.0044	-0.0194936	
0.004405	-0.0205877	
0.00441	-0.0214762	
0.004415	-0.0221871	
0.00442	-0.0227473	
0.004425	-0.0231816	
0.00443	-0.0235599	
0.004435	-0.0239784	
0.00444	-0.0244513	
0.004445	-0.0249376	
0.00445	-0.0254097	
0.004455	-0.0258501	
0.00446	-0.0262489	
0.004465	-0.0266488	
0.00447	-0.0270781	
0.004475	-0.0275065	
0.00448	-0.0279616	
0.004485	-0.0284603	
0.00449	-0.0290116	
0.004495	-0.0296192	
0.0045	-0.030235	
0.004505	-0.0308748	
0.00451	-0.0315476	
0.004515	-0.0322103	
0.00452	-0.0328351	
0.004525	-0.0334053	
0.00453	-0.0339125	
0.004535	-0.0343542	
0.00454	-0.0347794	
0.004545	-0.0352211	
0.00455	-0.0356528	
0.004555	-0.0360575	
0.00456	-0.0363777	
0.004565	-0.0366271	
0.00457	-0.036913	
0.004575	-0.037257	
0.00458	-0.0376231	
0.004585	-0.0379864	
0.00459	-0.0382831	
0.004595	-0.0384744	
0.0046	-0.0385872	
0.004605	-0.0385952	
0.00461	-0.0384863	
0.004615	-0.0380203	
0.00462	-0.0367228	
0.004625	-0.0345107	
0.00463	-0.0316101	
0.004635	-0.0282025	
0.00464	-0.0244316	
0.004645	-0.020457	
0.00465	-0.016441	
0.004655	-0.0124926	
0.00466	-0.0086804	
0.004665	-0.00504325	
0.00467	-0.00159849	
0.004675	0.00169911	
0.00468	0.00493384	
0.004685	0.00811673	
0.00469	0.0110198	
0.004695	0.0133159	
0.0047	0.0151507	
0.004705	0.0169749	
0.00471	0.018991	
0.004715	0.0211809	
0.00472	0.0234293	
0.004725	0.0256575	
0.00473	0.027862	
0.004735	0.0300418	
0.00474	0.0321972	
0.004745	0.0343297	
0.00475	0.0364412	
0.004755	0.0385342	
0.00476	0.0405634	
0.004765	0.0424546	
0.00477	0.044213	
0.004775	0.0458956	
0.00478	0.0475438	
0.004785	0.0491864	
0.00479	0.0507952	
0.004795	0.0523055	
0.0048	0.0537271	
0.004805	0.0551655	
0.00481	0.056642	
0.004815	0.0580739	
0.00482	0.059456	
0.004825	0.0607876	
0.00483	0.0620705	
0.004835	0.0633555	
0.00484	0.0646287	
0.004845	0.065834	
0.00485	0.066985	
0.004855	0.0681408	
0.00486	0.0692927	
0.004865	0.070435	
0.00487	0.0715645	
0.004875	0.0726322	
0.00488	0.0736561	
0.004885	0.0746503	
0.00489	0.0756253	
0.004895	0.0766843	
0.0049	0.0778912	
0.004905	0.0792334	
0.00491	0.0806491	
0.004915	0.0819986	
0.00492	0.0831932	
0.004925	0.0842766	
0.00493	0.0852831	
0.004935	0.0861912	
0.00494	0.0870865	
0.004945	0.0880737	
0.00495	0.0890748	
0.004955	0.0899426	
0.00496	0.0906815	
0.004965	0.0913956	
0.00497	0.0921069	
0.004975	0.0927829	
0.00498	0.0934036	
0.004985	0.0939585	
0.00499	0.0944437	
0.004995	0.0947175	
0.005	0.0947438	
0.005005	0.0948433	
0.00501	0.0951767	
0.005015	0.0956959	
0.00502	0.0963606	
0.005025	0.0969948	
0.00503	0.0974838	
0.005035	0.0979015	
0.00504	0.0982999	
