Time - Plot 0	Amplitude - Plot 0	
0	-0.00960605	
5E-6	-0.0102946	
1E-5	-0.0110223	
1.5E-5	-0.0117413	
2E-5	-0.0125157	
2.5E-5	-0.0134801	
3E-5	-0.0145242	
3.5E-5	-0.0154763	
4E-5	-0.0164179	
4.5E-5	-0.017403	
5E-5	-0.0183703	
5.5E-5	-0.019185	
6E-5	-0.0197654	
6.5E-5	-0.0202591	
7E-5	-0.0208622	
7.5E-5	-0.0216042	
8E-5	-0.0223075	
8.5E-5	-0.022857	
9E-5	-0.0233741	
9.5E-5	-0.0239405	
0.0001	-0.0244176	
0.000105	-0.0248131	
0.00011	-0.0253264	
0.000115	-0.025893	
0.00012	-0.0263729	
0.000125	-0.0267729	
0.00013	-0.0271014	
0.000135	-0.0274622	
0.00014	-0.0279223	
0.000145	-0.0284261	
0.00015	-0.028935	
0.000155	-0.0294231	
0.00016	-0.0298744	
0.000165	-0.0302801	
0.00017	-0.0306365	
0.000175	-0.0310387	
0.00018	-0.0315471	
0.000185	-0.0320064	
0.00019	-0.0323166	
0.000195	-0.0325137	
0.0002	-0.032627	
0.000205	-0.0326796	
0.00021	-0.0326898	
0.000215	-0.0326715	
0.00022	-0.0327303	
0.000225	-0.0330274	
0.00023	-0.0334675	
0.000235	-0.0337909	
0.00024	-0.0339271	
0.000245	-0.0339333	
0.00025	-0.0338536	
0.000255	-0.033816	
0.00026	-0.0339982	
0.000265	-0.0344117	
0.00027	-0.034863	
0.000275	-0.035223	
0.00028	-0.0355056	
0.000285	-0.0356288	
0.00029	-0.0355461	
0.000295	-0.0352363	
0.0003	-0.0346014	
0.000305	-0.033687	
0.00031	-0.0326317	
0.000315	-0.0314382	
0.00032	-0.03002	
0.000325	-0.0284256	
0.00033	-0.0267905	
0.000335	-0.0251107	
0.00034	-0.0232908	
0.000345	-0.0213696	
0.00035	-0.0194724	
0.000355	-0.0176808	
0.00036	-0.0160435	
0.000365	-0.0145854	
0.00037	-0.0132194	
0.000375	-0.0117886	
0.00038	-0.0102876	
0.000385	-0.00881134	
0.00039	-0.00732616	
0.000395	-0.0057152	
0.0004	-0.00400242	
0.000405	-0.00230352	
0.00041	-0.000694131	
0.000415	0.000780124	
0.00042	0.00209555	
0.000425	0.00324403	
0.00043	0.0043232	
0.000435	0.00549575	
0.00044	0.0067695	
0.000445	0.00814479	
0.00045	0.00971213	
0.000455	0.011427	
0.00046	0.0131581	
0.000465	0.014818	
0.00047	0.0163524	
0.000475	0.0177315	
0.00048	0.018943	
0.000485	0.0199867	
0.00049	0.0208704	
0.000495	0.0261702	
0.0005	0.0394549	
0.000505	0.0542389	
0.00051	0.0653191	
0.000515	0.0733382	
0.00052	0.0789596	
0.000525	0.0827343	
0.00053	0.0853029	
0.000535	0.087145	
0.00054	0.0882308	
0.000545	0.0886715	
0.00055	0.0888561	
0.000555	0.0889583	
0.00056	0.0890013	
0.000565	0.0890031	
0.00057	0.0889779	
0.000575	0.0890309	
0.00058	0.0893233	
0.000585	0.0897596	
0.00059	0.09008	
0.000595	0.0902138	
0.0006	0.0902182	
0.000605	0.0902322	
0.00061	0.090442	
0.000615	0.090866	
0.00062	0.0914112	
0.000625	0.0919155	
0.00063	0.0922738	
0.000635	0.0926141	
0.00064	0.0930214	
0.000645	0.0934537	
0.00065	0.0938819	
0.000655	0.0942873	
0.00066	0.0946584	
0.000665	0.0949893	
0.00067	0.0952782	
0.000675	0.0955256	
0.00068	0.0957339	
0.000685	0.0959067	
0.00069	0.0960479	
0.000695	0.0962566	
0.0007	0.096595	
0.000705	0.0969079	
0.00071	0.097094	
0.000715	0.0972829	
0.00072	0.0975598	
0.000725	0.0977864	
0.00073	0.0978742	
0.000735	0.0978662	
0.00074	0.0977955	
0.000745	0.0976868	
0.00075	0.0975581	
0.000755	0.0975175	
0.00076	0.0976319	
0.000765	0.0978431	
0.00077	0.0981081	
0.000775	0.098301	
0.00078	0.0984373	
0.000785	0.0986248	
0.00079	0.0987422	
0.000795	0.0987127	
0.0008	0.0985878	
0.000805	0.0984058	
0.00081	0.0981949	
0.000815	0.0979748	
0.00082	0.0977591	
0.000825	0.0975565	
0.00083	0.0973721	
0.000835	0.0972085	
0.00084	0.0969711	
0.000845	0.0965063	
0.00085	0.0958185	
0.000855	0.095016	
0.00086	0.094176	
0.000865	0.0934461	
0.00087	0.0929182	
0.000875	0.0925486	
0.00088	0.0923009	
0.000885	0.0920501	
0.00089	0.0917141	
0.000895	0.0913378	
0.0009	0.0909527	
0.000905	0.0905801	
0.00091	0.0902333	
0.000915	0.0899199	
0.00092	0.0896434	
0.000925	0.0893092	
0.00093	0.0887626	
0.000935	0.0880068	
0.00094	0.0871488	
0.000945	0.0862639	
0.00095	0.0854032	
0.000955	0.0845041	
0.00096	0.0834321	
0.000965	0.0822017	
0.00097	0.080925	
0.000975	0.0796782	
0.00098	0.0785101	
0.000985	0.0774491	
0.00099	0.0765089	
0.000995	0.0756929	
0.001	0.0749973	
0.001005	0.074414	
0.00101	0.0738372	
0.001015	0.073102	
0.00102	0.0722019	
0.001025	0.0712357	
0.00103	0.0702717	
0.001035	0.0693546	
0.00104	0.0685119	
0.001045	0.067663	
0.00105	0.06666	
0.001055	0.0656029	
0.00106	0.0646551	
0.001065	0.0637293	
0.00107	0.0627665	
0.001075	0.061825	
0.00108	0.060847	
0.001085	0.059796	
0.00109	0.0587467	
0.001095	0.057653	
0.0011	0.0564868	
0.001105	0.0553278	
0.00111	0.0542285	
0.001115	0.0532204	
0.00112	0.0523203	
0.001125	0.0514388	
0.00113	0.0504211	
0.001135	0.0492668	
0.00114	0.0480768	
0.001145	0.0469198	
0.00115	0.0458391	
0.001155	0.0447648	
0.00116	0.0435554	
0.001165	0.042219	
0.00117	0.0408622	
0.001175	0.039556	
0.00118	0.038345	
0.001185	0.0372541	
0.00119	0.0361988	
0.001195	0.0351219	
0.0012	0.0341767	
0.001205	0.033363	
0.00121	0.0324845	
0.001215	0.0315097	
0.00122	0.0305174	
0.001225	0.0295606	
0.00123	0.0286725	
0.001235	0.0278716	
0.00124	0.0271661	
0.001245	0.0264619	
0.00125	0.0256966	
0.001255	0.0249274	
0.00126	0.0240968	
0.001265	0.02317	
0.00127	0.0222237	
0.001275	0.0213091	
0.00128	0.0204588	
0.001285	0.019596	
0.00129	0.0185756	
0.001295	0.0174045	
0.0013	0.0161895	
0.001305	0.0150029	
0.00131	0.0138912	
0.001315	0.0128815	
0.00132	0.0119868	
0.001325	0.0112102	
0.00133	0.0105482	
0.001335	0.00999309	
0.00134	0.00943965	
0.001345	0.00872335	
0.00135	0.00774339	
0.001355	0.00654088	
0.00136	0.00534357	
0.001365	0.00430139	
0.00137	0.0034108	
0.001375	0.00266226	
0.00138	0.00194774	
0.001385	0.00109928	
0.00139	0.00010758	
0.001395	-0.000931661	
0.0014	-0.0019531	
0.001405	-0.00291448	
0.00141	-0.00379079	
0.001415	-0.00466464	
0.00142	-0.00568568	
0.001425	-0.00675547	
0.00143	-0.00771173	
0.001435	-0.00864299	
0.00144	-0.00960877	
0.001445	-0.0105517	
0.00145	-0.0114348	
0.001455	-0.0122369	
0.00146	-0.0130426	
0.001465	-0.0139076	
0.00147	-0.0146758	
0.001475	-0.0152487	
0.00148	-0.0156658	
0.001485	-0.0160555	
0.00149	-0.0165038	
0.001495	-0.0169695	
0.0015	-0.0175197	
0.001505	-0.0181946	
0.00151	-0.01892	
0.001515	-0.0196442	
0.00152	-0.0203334	
0.001525	-0.020967	
0.00153	-0.0215339	
0.001535	-0.02203	
0.00154	-0.022456	
0.001545	-0.0228156	
0.00155	-0.0231144	
0.001555	-0.0234541	
0.00156	-0.0239948	
0.001565	-0.0246425	
0.00157	-0.0251399	
0.001575	-0.0254197	
0.00158	-0.0256378	
0.001585	-0.025995	
0.00159	-0.0265222	
0.001595	-0.0271365	
0.0016	-0.0277791	
0.001605	-0.028315	
0.00161	-0.0286601	
0.001615	-0.0289582	
0.00162	-0.0293062	
0.001625	-0.0296706	
0.00163	-0.0300287	
0.001635	-0.0303657	
0.00164	-0.0306727	
0.001645	-0.0309456	
0.00165	-0.0311829	
0.001655	-0.0313857	
0.00166	-0.0315561	
0.001665	-0.031697	
0.00167	-0.0318118	
0.001675	-0.0319041	
0.00168	-0.031977	
0.001685	-0.0320338	
0.00169	-0.0320773	
0.001695	-0.0321099	
0.0017	-0.0321338	
0.001705	-0.0321508	
0.00171	-0.0321625	
0.001715	-0.0321702	
0.00172	-0.0321748	
0.001725	-0.0321771	
0.00173	-0.0321779	
0.001735	-0.0321776	
0.00174	-0.0321766	
0.001745	-0.0320802	
0.00175	-0.0317352	
0.001755	-0.0310525	
0.00176	-0.0299893	
0.001765	-0.0286304	
0.00177	-0.0271408	
0.001775	-0.0255405	
0.00178	-0.0237527	
0.001785	-0.0218307	
0.00179	-0.0199113	
0.001795	-0.0180842	
0.0018	-0.0164045	
0.001805	-0.0149013	
0.00181	-0.0134907	
0.001815	-0.0120175	
0.00182	-0.0104779	
0.001825	-0.00896709	
0.00183	-0.00745179	
0.001835	-0.00591009	
0.00184	-0.0044239	
0.001845	-0.00294954	
0.00185	-0.00145765	
0.001855	-2.47485E-5	
0.00186	0.00139655	
0.001865	0.00283804	
0.00187	0.00422467	
0.001875	0.00560461	
0.00188	0.00700995	
0.001885	0.00836556	
0.00189	0.00962427	
0.001895	0.0107595	
0.0019	0.0118548	
0.001905	0.012967	
0.00191	0.0140377	
0.001915	0.0151255	
0.00192	0.0162681	
0.001925	0.017393	
0.00193	0.0184528	
0.001935	0.0195147	
0.00194	0.0206229	
0.001945	0.0217092	
0.00195	0.0228246	
0.001955	0.0240017	
0.00196	0.0251637	
0.001965	0.0262608	
0.00197	0.0273583	
0.001975	0.0284992	
0.00198	0.0296148	
0.001985	0.030756	
0.00199	0.0319551	
0.001995	0.0331358	
0.002	0.0342484	
0.002005	0.0352636	
0.00201	0.0361664	
0.002015	0.0370476	
0.00202	0.0379679	
0.002025	0.0391557	
0.00203	0.0413193	
0.002035	0.0446894	
0.00204	0.0486957	
0.002045	0.0528368	
0.00205	0.056871	
0.002055	0.0606439	
0.00206	0.064066	
0.002065	0.0671901	
0.00207	0.0701601	
0.002075	0.0728879	
0.00208	0.075137	
0.002085	0.0768689	
0.00209	0.078273	
0.002095	0.0794896	
0.0021	0.08043	
0.002105	0.0811438	
0.00211	0.0818646	
0.002115	0.0826509	
0.00212	0.0834433	
0.002125	0.0841071	
0.00213	0.0845597	
0.002135	0.0849467	
0.00214	0.0853671	
0.002145	0.0857898	
0.00215	0.086194	
0.002155	0.0865668	
0.00216	0.0869013	
0.002165	0.0871947	
0.00217	0.0874472	
0.002175	0.0876607	
0.00218	0.0878385	
0.002185	0.0878892	
0.00219	0.0877586	
0.002195	0.0875147	
0.0022	0.0872076	
0.002205	0.0869685	
0.00221	0.0868805	
0.002215	0.0868963	
0.00222	0.0869799	
0.002225	0.0871042	
0.00223	0.0871543	
0.002235	0.0869631	
0.00224	0.0866217	
0.002245	0.0862926	
0.00225	0.0858921	
0.002255	0.0853684	
0.00226	0.0847881	
0.002265	0.0841981	
0.00227	0.0836295	
0.002275	0.083102	
0.00228	0.0826264	
0.002285	0.0822077	
0.00229	0.0817511	
0.002295	0.0811961	
0.0023	0.0806025	
0.002305	0.0799164	
0.00231	0.0791067	
0.002315	0.0782538	
0.00232	0.0774128	
0.002325	0.0766194	
0.00233	0.0758949	
0.002335	0.0752501	
0.00234	0.0746883	
0.002345	0.0742079	
0.00235	0.0737087	
0.002355	0.0730307	
0.00236	0.0722668	
0.002365	0.0715775	
0.00237	0.0708748	
0.002375	0.0701016	
0.00238	0.0693184	
0.002385	0.0685657	
0.00239	0.0678686	
0.002395	0.0672413	
0.0024	0.0665945	
0.002405	0.0658704	
0.00241	0.0651295	
0.002415	0.0643176	
0.00242	0.0634022	
0.002425	0.0624619	
0.00243	0.0615495	
0.002435	0.0606037	
0.00244	0.0594905	
0.002445	0.0582244	
0.00245	0.0569174	
0.002455	0.0556453	
0.00246	0.0544564	
0.002465	0.0532834	
0.00247	0.0519863	
0.002475	0.0506688	
0.00248	0.0494951	
0.002485	0.0483767	
0.00249	0.0472526	
0.002495	0.0461779	
0.0025	0.0451866	
0.002505	0.0442972	
0.00251	0.043422	
0.002515	0.0424074	
0.00252	0.0412537	
0.002525	0.040063	
0.00253	0.0389042	
0.002535	0.0378211	
0.00254	0.0368393	
0.002545	0.0359707	
0.00255	0.0351227	
0.002555	0.0341383	
0.00256	0.0330154	
0.002565	0.0318543	
0.00257	0.030723	
0.002575	0.0296648	
0.00258	0.0287048	
0.002585	0.0278551	
0.00259	0.0271181	
0.002595	0.0264905	
0.0026	0.0259646	
0.002605	0.0254355	
0.00261	0.0247393	
0.002615	0.0238707	
0.00262	0.0229295	
0.002625	0.0218899	
0.00263	0.0206445	
0.002635	0.0193223	
0.00264	0.018107	
0.002645	0.0169246	
0.00265	0.0157248	
0.002655	0.0145703	
0.00266	0.0135002	
0.002665	0.0125364	
0.00267	0.0116882	
0.002675	0.0109565	
0.00268	0.010241	
0.002685	0.00937995	
0.00269	0.00836857	
0.002695	0.00730591	
0.0027	0.0062597	
0.002705	0.00527382	
0.00271	0.00437434	
0.002715	0.00357439	
0.00272	0.00278281	
0.002725	0.00193912	
0.00273	0.00110099	
0.002735	0.000211085	
0.00274	-0.000765934	
0.002745	-0.00175418	
0.00275	-0.00270309	
0.002755	-0.00358118	
0.00276	-0.00437104	
0.002765	-0.00506538	
0.00277	-0.00566388	
0.002775	-0.00626597	
0.00278	-0.00693701	
0.002785	-0.00762177	
0.00279	-0.00837827	
0.002795	-0.00924136	
0.0028	-0.0100388	
0.002805	-0.0106602	
0.00281	-0.0112313	
0.002815	-0.0118371	
0.00282	-0.0124373	
0.002825	-0.0131004	
0.00283	-0.0138687	
0.002835	-0.01467	
0.00284	-0.0154552	
0.002845	-0.0160975	
0.00285	-0.0165203	
0.002855	-0.0167782	
0.00286	-0.0170103	
0.002865	-0.0174046	
0.00287	-0.0179822	
0.002875	-0.0186534	
0.00288	-0.0193545	
0.002885	-0.0200422	
0.00289	-0.0206885	
0.002895	-0.021277	
0.0029	-0.0217995	
0.002905	-0.0222538	
0.00291	-0.0227367	
0.002915	-0.0234058	
0.00292	-0.024261	
0.002925	-0.0251035	
0.00293	-0.0258026	
0.002935	-0.0264692	
0.00294	-0.027178	
0.002945	-0.0278809	
0.00295	-0.0285469	
0.002955	-0.0291569	
0.00296	-0.0297012	
0.002965	-0.0301764	
0.00297	-0.0305835	
0.002975	-0.0310217	
0.00298	-0.0315546	
0.002985	-0.0320297	
0.00299	-0.0323492	
0.002995	-0.032646	
0.003	-0.0330088	
0.003005	-0.0333031	
0.00301	-0.033443	
0.003015	-0.0334747	
0.00302	-0.0334334	
0.003025	-0.033346	
0.00303	-0.0332323	
0.003035	-0.0331067	
0.00304	-0.0329791	
0.003045	-0.0328563	
0.00305	-0.0327424	
0.003055	-0.0326398	
0.00306	-0.0324544	
0.003065	-0.0320331	
0.00307	-0.0313811	
0.003075	-0.0306078	
0.00308	-0.029696	
0.003085	-0.0285459	
0.00309	-0.0271029	
0.003095	-0.025345	
0.0031	-0.0233674	
0.003105	-0.0213385	
0.00311	-0.0193719	
0.003115	-0.0175392	
0.00312	-0.0158815	
0.003125	-0.0144177	
0.00313	-0.0130558	
0.003135	-0.0116354	
0.00314	-0.0101486	
0.003145	-0.00868823	
0.00315	-0.00721936	
0.003155	-0.00571926	
0.00316	-0.00426954	
0.003165	-0.00282652	
0.00317	-0.0013611	
0.003175	4.9768E-5	
0.00318	0.00135795	
0.003185	0.00263161	
0.00319	0.00401242	
0.003195	0.00549363	
0.0032	0.00697099	
0.003205	0.00837593	
0.00321	0.00966667	
0.003215	0.0108211	
0.00322	0.011831	
0.003225	0.0127929	
0.00323	0.0138678	
0.003235	0.0150615	
0.00324	0.0162771	
0.003245	0.0174495	
0.00325	0.018538	
0.003255	0.0196149	
0.00326	0.0208232	
0.003265	0.0220611	
0.00327	0.0231648	
0.003275	0.024223	
0.00328	0.0260567	
0.003285	0.029646	
0.00329	0.0346034	
0.003295	0.0401332	
0.0033	0.0459691	
0.003305	0.0517308	
0.00331	0.0570759	
0.003315	0.0619887	
0.00332	0.066384	
0.003325	0.0701352	
0.00333	0.0733793	
0.003335	0.0762307	
0.00334	0.0786884	
0.003345	0.0807702	
0.00335	0.0825056	
0.003355	0.0839307	
0.00336	0.0850837	
0.003365	0.0860027	
0.00337	0.0867241	
0.003375	0.087376	
0.00338	0.0880465	
0.003385	0.0886023	
0.00339	0.0890563	
0.003395	0.0896118	
0.0034	0.090303	
0.003405	0.091051	
0.00341	0.0918011	
0.003415	0.0925171	
0.00342	0.0931767	
0.003425	0.093768	
0.00343	0.0942863	
0.003435	0.0947318	
0.00344	0.0951084	
0.003445	0.0954217	
0.00345	0.0956784	
0.003455	0.0958857	
0.00346	0.0960506	
0.003465	0.0961798	
0.00347	0.0962792	
0.003475	0.0963544	
0.00348	0.0965051	
0.003485	0.0968886	
0.00349	0.0974075	
0.003495	0.097896	
0.0035	0.0983413	
0.003505	0.0986421	
0.00351	0.0987383	
0.003515	0.098695	
0.00352	0.0985618	
0.003525	0.0983757	
0.00353	0.0982584	
0.003535	0.0982873	
0.00354	0.098316	
0.003545	0.0982482	
0.00355	0.09812	
0.003555	0.097958	
0.00356	0.0977814	
0.003565	0.0976035	
0.00357	0.0974332	
0.003575	0.097276	
0.00358	0.0971347	
0.003585	0.0970108	
0.00359	0.096904	
0.003595	0.0968137	
0.0036	0.0967385	
0.003605	0.0966768	
0.00361	0.0966269	
0.003615	0.0965872	
0.00362	0.096461	
0.003625	0.0961886	
0.00363	0.0959279	
0.003635	0.0957822	
0.00364	0.0956242	
0.003645	0.0952754	
0.00365	0.0947222	
0.003655	0.0940604	
0.00366	0.0933584	
0.003665	0.0926629	
0.00367	0.0920048	
0.003675	0.0913073	
0.00368	0.0904266	
0.003685	0.0893719	
0.00369	0.0883472	
0.003695	0.087486	
0.0037	0.0866781	
0.003705	0.0858486	
0.00371	0.0850441	
0.003715	0.0842941	
0.00372	0.0836155	
0.003725	0.0830161	
0.00373	0.0824972	
0.003735	0.0819609	
0.00374	0.0812484	
0.003745	0.0803582	
0.00375	0.0793931	
0.003755	0.0784242	
0.00376	0.0774987	
0.003765	0.0766454	
0.00377	0.0758802	
0.003775	0.0751142	
0.00378	0.0741938	
0.003785	0.073215	
0.00379	0.0723392	
0.003795	0.0714776	
0.0038	0.070571	
0.003805	0.0696777	
0.00381	0.0687403	
0.003815	0.0677231	
0.00382	0.0667964	
0.003825	0.0659733	
0.00383	0.0650673	
0.003835	0.0640544	
0.00384	0.0630188	
0.003845	0.0620174	
0.00385	0.0610858	
0.003855	0.0602443	
0.00386	0.059407	
0.003865	0.0584219	
0.00387	0.0572908	
0.003875	0.056117	
0.00388	0.0549706	
0.003885	0.0538964	
0.00389	0.0529207	
0.003895	0.052056	
0.0039	0.0512104	
0.003905	0.0502272	
0.00391	0.0491047	
0.003915	0.0479435	
0.00392	0.0468116	
0.003925	0.0456576	
0.00393	0.0444485	
0.003935	0.0432602	
0.00394	0.0420469	
0.003945	0.0407792	
0.00395	0.0395358	
0.003955	0.0383671	
0.00396	0.037303	
0.003965	0.0363582	
0.00397	0.0355367	
0.003975	0.0347403	
0.00398	0.033808	
0.003985	0.0327351	
0.00399	0.0316203	
0.003995	0.0305305	
0.004	0.0295087	
0.004005	0.0285802	
0.00401	0.0277571	
0.004015	0.0270424	
0.00402	0.0263379	
0.004025	0.0254833	
0.00403	0.024475	
0.004035	0.0234132	
0.00404	0.0222713	
0.004045	0.0209403	
0.00405	0.0194525	
0.004055	0.0179318	
0.00406	0.0164613	
0.004065	0.0150935	
0.00407	0.013858	
0.004075	0.0127682	
0.00408	0.011826	
0.004085	0.0110257	
0.00409	0.0103569	
0.004095	0.00980629	
0.0041	0.00935974	
0.004105	0.00890782	
0.00411	0.00837868	
0.004115	0.00782364	
0.00412	0.00718271	
0.004125	0.00642039	
0.00413	0.00561409	
0.004135	0.00481693	
0.00414	0.0040635	
0.004145	0.00327946	
0.00415	0.00241726	
0.004155	0.00163937	
0.00416	0.000953868	
0.004165	0.000171558	
0.00417	-0.00073265	
0.004175	-0.00167446	
0.00418	-0.00259653	
0.004185	-0.00346196	
0.00419	-0.00424911	
0.004195	-0.0050425	
0.0042	-0.00589754	
0.004205	-0.00675279	
0.00421	-0.00766279	
0.004215	-0.00866093	
0.00422	-0.00966997	
0.004225	-0.0106385	
0.00423	-0.0115344	
0.004235	-0.0123402	
0.00424	-0.0130484	
0.004245	-0.0136587	
0.00425	-0.0141757	
0.004255	-0.0147017	
0.00426	-0.0153989	
0.004265	-0.0161761	
0.00427	-0.0168741	
0.004275	-0.0175821	
0.00428	-0.0183581	
0.004285	-0.0191423	
0.00429	-0.0198948	
0.004295	-0.0205909	
0.0043	-0.0212167	
0.004305	-0.0217668	
0.00431	-0.0222407	
0.004315	-0.0226422	
0.00432	-0.0229768	
0.004325	-0.0232515	
0.00433	-0.0234737	
0.004335	-0.0237459	
0.00434	-0.0241333	
0.004345	-0.0244831	
0.00435	-0.0248868	
0.004355	-0.025497	
0.00436	-0.0260244	
0.004365	-0.026282	
0.00437	-0.0264448	
0.004375	-0.0267274	
0.00438	-0.0271707	
0.004385	-0.027699	
0.00439	-0.0282584	
0.004395	-0.0288118	
0.0044	-0.029335	
0.004405	-0.0298137	
0.00441	-0.0302403	
0.004415	-0.0306125	
0.00442	-0.030931	
0.004425	-0.0311993	
0.00443	-0.0314216	
0.004435	-0.0316032	
0.00444	-0.0318443	
0.004445	-0.0322084	
0.00445	-0.0325413	
0.004455	-0.0327428	
0.00446	-0.0328481	
0.004465	-0.0328851	
0.00447	-0.0328752	
0.004475	-0.0328349	
0.00448	-0.0327764	
0.004485	-0.0327087	
0.00449	-0.0326382	
0.004495	-0.0326642	
0.0045	-0.0328477	
0.004505	-0.0330312	
0.00451	-0.0331111	
0.004515	-0.0332138	
0.00452	-0.033517	
0.004525	-0.033938	
0.00453	-0.0342265	
0.004535	-0.0343191	
0.00454	-0.0343731	
0.004545	-0.0344942	
0.00455	-0.0345588	
0.004555	-0.034488	
0.00456	-0.0344262	
0.004565	-0.0344685	
0.00457	-0.0344824	
0.004575	-0.0343817	
0.00458	-0.0342102	
0.004585	-0.0339052	
0.00459	-0.0334314	
0.004595	-0.0328688	
0.0046	-0.0321791	
0.004605	-0.0312482	
0.00461	-0.0300121	
0.004615	-0.0285381	
0.00462	-0.026977	
0.004625	-0.0254323	
0.00463	-0.0238765	
0.004635	-0.0221967	
0.00464	-0.0204195	
0.004645	-0.0186623	
0.00465	-0.0170013	
0.004655	-0.0152921	
0.00466	-0.0134419	
0.004665	-0.0117763	
0.00467	-0.0104064	
0.004675	-0.00910598	
0.00468	-0.00781788	
0.004685	-0.00659881	
0.00469	-0.00548292	
0.004695	-0.00448784	
0.0047	-0.0035244	
0.004705	-0.00243725	
0.00471	-0.00122489	
0.004715	1.26853E-5	
0.00472	0.00120836	
0.004725	0.00241492	
0.00473	0.00376173	
0.004735	0.00523238	
0.00474	0.00671514	
0.004745	0.00813574	
0.00475	0.00954323	
0.004755	0.0110657	
0.00476	0.0126869	
0.004765	0.0142967	
0.00477	0.0158227	
0.004775	0.0172214	
0.00478	0.018565	
0.004785	0.0199988	
0.00479	0.0215195	
0.004795	0.0230254	
0.0048	0.0244504	
0.004805	0.0258497	
0.00481	0.027261	
0.004815	0.0285183	
0.00482	0.0295196	
0.004825	0.0303998	
0.00483	0.0313487	
0.004835	0.032393	
0.00484	0.0334508	
0.004845	0.0344676	
0.00485	0.0354092	
0.004855	0.0362566	
0.00486	0.037002	
0.004865	0.0376447	
0.00487	0.0382845	
0.004875	0.0390821	
0.00488	0.0400413	
0.004885	0.0413467	
0.00489	0.0433892	
0.004895	0.0461062	
0.0049	0.0490444	
0.004905	0.0518944	
0.00491	0.0546466	
0.004915	0.057299	
0.00492	0.0596653	
0.004925	0.0616359	
0.00493	0.0632523	
0.004935	0.0645588	
0.00494	0.0656942	
0.004945	0.0667582	
0.00495	0.0677248	
0.004955	0.0685814	
0.00496	0.0691349	
0.004965	0.0692722	
0.00497	0.0693187	
0.004975	0.0694933	
0.00498	0.0697441	
0.004985	0.0700332	
0.00499	0.070334	
0.004995	0.0705332	
0.005	0.0704658	
0.005005	0.0702258	
0.00501	0.0700735	
0.005015	0.0700814	
0.00502	0.0700993	
0.005025	0.070028	
0.00503	0.0699963	
0.005035	0.0699922	
0.00504	0.0699115	
0.005045	0.069784	
