Time - Plot 0	Amplitude - Plot 0	
0	-0.0142827	
1E-6	-0.0142755	
2E-6	-0.0143561	
3E-6	-0.0144908	
4E-6	-0.0146548	
5E-6	-0.0148303	
6E-6	-0.0150052	
7E-6	-0.0151714	
8E-6	-0.015419	
9E-6	-0.0158037	
1E-5	-0.0161655	
1.1E-5	-0.0164	
1.2E-5	-0.0165395	
1.3E-5	-0.0166098	
1.4E-5	-0.0166311	
1.5E-5	-0.0166191	
1.6E-5	-0.0165857	
1.7E-5	-0.0165398	
1.8E-5	-0.0164878	
1.9E-5	-0.0164342	
2E-5	-0.0164772	
2.1E-5	-0.016677	
2.2E-5	-0.0169706	
2.3E-5	-0.0173122	
2.4E-5	-0.0176694	
2.5E-5	-0.0180198	
2.6E-5	-0.0182542	
2.7E-5	-0.018306	
2.8E-5	-0.0182348	
2.9E-5	-0.018086	
3E-5	-0.017893	
3.1E-5	-0.0176801	
3.2E-5	-0.017464	
3.3E-5	-0.0172561	
3.4E-5	-0.0171585	
3.5E-5	-0.0172332	
3.6E-5	-0.0174182	
3.7E-5	-0.017762	
3.8E-5	-0.0181944	
3.9E-5	-0.0185697	
4E-5	-0.0188895	
4.1E-5	-0.0190626	
4.2E-5	-0.0190357	
4.3E-5	-0.0188781	
4.4E-5	-0.018737	
4.5E-5	-0.0187084	
4.6E-5	-0.0187555	
4.7E-5	-0.0188501	
4.8E-5	-0.0189716	
4.9E-5	-0.0192002	
5E-5	-0.0195836	
5.1E-5	-0.019956	
5.2E-5	-0.0201132	
5.3E-5	-0.0201213	
5.4E-5	-0.0202206	
5.5E-5	-0.0203755	
5.6E-5	-0.0204647	
5.7E-5	-0.0206013	
5.8E-5	-0.0208578	
5.9E-5	-0.0211813	
6E-5	-0.0215336	
6.1E-5	-0.0218882	
6.2E-5	-0.0222276	
6.3E-5	-0.0224459	
6.4E-5	-0.0224789	
6.5E-5	-0.0224832	
6.6E-5	-0.0225635	
6.7E-5	-0.0226901	
6.8E-5	-0.0228412	
6.9E-5	-0.0230014	
7E-5	-0.0231599	
7.1E-5	-0.0233099	
7.2E-5	-0.0234471	
7.3E-5	-0.0235694	
7.4E-5	-0.0237712	
7.5E-5	-0.0241109	
7.6E-5	-0.0244305	
7.7E-5	-0.0246265	
7.8E-5	-0.0247318	
7.9E-5	-0.0246773	
8E-5	-0.0244248	
8.1E-5	-0.0241489	
8.2E-5	-0.0239657	
8.3E-5	-0.0238522	
8.4E-5	-0.02379	
8.5E-5	-0.0238598	
8.6E-5	-0.0241082	
8.7E-5	-0.0243677	
8.8E-5	-0.0245271	
8.9E-5	-0.024613	
9E-5	-0.0246463	
9.1E-5	-0.0246434	
9.2E-5	-0.0246168	
9.3E-5	-0.0245758	
9.4E-5	-0.0246222	
9.5E-5	-0.0248193	
9.6E-5	-0.0250113	
9.7E-5	-0.0250957	
9.8E-5	-0.0251053	
9.9E-5	-0.025065	
0.0001	-0.0249938	
0.000101	-0.0250006	
0.000102	-0.0252487	
0.000103	-0.0256441	
0.000104	-0.0259278	
0.000105	-0.0260294	
0.000106	-0.0260061	
0.000107	-0.0259016	
0.000108	-0.0258435	
0.000109	-0.0259139	
0.00011	-0.0259705	
0.000111	-0.0259203	
0.000112	-0.0259923	
0.000113	-0.0264266	
0.000114	-0.0269841	
0.000115	-0.0273114	
0.000116	-0.0273762	
0.000117	-0.027265	
0.000118	-0.027138	
0.000119	-0.0271017	
0.00012	-0.0271269	
0.000121	-0.0272865	
0.000122	-0.0276223	
0.000123	-0.0279633	
0.000124	-0.0281015	
0.000125	-0.0280994	
0.000126	-0.028195	
0.000127	-0.0284456	
0.000128	-0.0287866	
0.000129	-0.029171	
0.00013	-0.0295658	
0.000131	-0.0299489	
0.000132	-0.0302111	
0.000133	-0.030286	
0.000134	-0.030329	
0.000135	-0.030444	
0.000136	-0.0305059	
0.000137	-0.0304349	
0.000138	-0.0303746	
0.000139	-0.0304194	
0.00014	-0.0305312	
0.000141	-0.030587	
0.000142	-0.0305081	
0.000143	-0.030344	
0.000144	-0.0301317	
0.000145	-0.0299926	
0.000146	-0.0299083	
0.000147	-0.0297692	
0.000148	-0.0296955	
0.000149	-0.0297635	
0.00015	-0.0299217	
0.000151	-0.0301319	
0.000152	-0.0303665	
0.000153	-0.0306061	
0.000154	-0.0308375	
0.000155	-0.0310527	
0.000156	-0.031152	
0.000157	-0.031075	
0.000158	-0.0309805	
0.000159	-0.030974	
0.00016	-0.0310259	
0.000161	-0.0311138	
0.000162	-0.0312212	
0.000163	-0.0313365	
0.000164	-0.0314515	
0.000165	-0.0315609	
0.000166	-0.0315663	
0.000167	-0.0314079	
0.000168	-0.0311489	
0.000169	-0.0308358	
0.00017	-0.030597	
0.000171	-0.0305135	
0.000172	-0.0305364	
0.000173	-0.0306283	
0.000174	-0.0307614	
0.000175	-0.0309153	
0.000176	-0.0309806	
0.000177	-0.0308894	
0.000178	-0.0307943	
0.000179	-0.0307962	
0.00018	-0.030862	
0.000181	-0.0309669	
0.000182	-0.0310924	
0.000183	-0.0311307	
0.000184	-0.0310145	
0.000185	-0.0308971	
0.000186	-0.0308794	
0.000187	-0.0309283	
0.000188	-0.0310189	
0.000189	-0.0311326	
0.00019	-0.0312562	
0.000191	-0.0313805	
0.000192	-0.0314994	
0.000193	-0.031609	
0.000194	-0.0316124	
0.000195	-0.0314503	
0.000196	-0.0312821	
0.000197	-0.0312127	
0.000198	-0.0312117	
0.000199	-0.031161	
0.0002	-0.0309846	
0.000201	-0.0308289	
0.000202	-0.0307893	
0.000203	-0.030828	
0.000204	-0.0309165	
0.000205	-0.0310338	
0.000206	-0.0311644	
0.000207	-0.0312976	
0.000208	-0.0314263	
0.000209	-0.0315459	
0.00021	-0.0316538	
0.000211	-0.031749	
0.000212	-0.0318312	
0.000213	-0.031901	
0.000214	-0.0319593	
0.000215	-0.0320073	
0.000216	-0.0320462	
0.000217	-0.0320772	
0.000218	-0.0321017	
0.000219	-0.0321206	
0.00022	-0.0321349	
0.000221	-0.0321456	
0.000222	-0.0321534	
0.000223	-0.0321589	
0.000224	-0.0321626	
0.000225	-0.0321649	
0.000226	-0.0321663	
0.000227	-0.0321669	
0.000228	-0.0321671	
0.000229	-0.0321668	
0.00023	-0.0320713	
0.000231	-0.0318225	
0.000232	-0.0316744	
0.000233	-0.0317899	
0.000234	-0.0319787	
0.000235	-0.0321117	
0.000236	-0.0322018	
0.000237	-0.0322592	
0.000238	-0.0322925	
0.000239	-0.0323081	
0.00024	-0.0323115	
0.000241	-0.0323066	
0.000242	-0.0322014	
0.000243	-0.03194	
0.000244	-0.031683	
0.000245	-0.0315361	
0.000246	-0.0315639	
0.000247	-0.0318006	
0.000248	-0.0320688	
0.000249	-0.03225	
0.00025	-0.0323652	
0.000251	-0.0323364	
0.000252	-0.032119	
0.000253	-0.0317875	
0.000254	-0.0313964	
0.000255	-0.0310797	
0.000256	-0.030922	
0.000257	-0.0308766	
0.000258	-0.0309074	
0.000259	-0.030987	
0.00026	-0.031095	
0.000261	-0.0311215	
0.000262	-0.030998	
0.000263	-0.0308765	
0.000264	-0.0308572	
0.000265	-0.0310011	
0.000266	-0.0313411	
0.000267	-0.031699	
0.000268	-0.0319569	
0.000269	-0.0321365	
0.00027	-0.0322561	
0.000271	-0.0322354	
0.000272	-0.0320281	
0.000273	-0.0318026	
0.000274	-0.0316709	
0.000275	-0.0316072	
0.000276	-0.0315914	
0.000277	-0.0316079	
0.000278	-0.0316449	
0.000279	-0.0317888	
0.00028	-0.0320914	
0.000281	-0.0323893	
0.000282	-0.0325749	
0.000283	-0.0326777	
0.000284	-0.032721	
0.000285	-0.0327231	
0.000286	-0.0326978	
0.000287	-0.0326558	
0.000288	-0.0326047	
0.000289	-0.0324549	
0.00029	-0.0321521	
0.000291	-0.0318578	
0.000292	-0.0316781	
0.000293	-0.0315824	
0.000294	-0.0315467	
0.000295	-0.0315522	
0.000296	-0.0315846	
0.000297	-0.0316332	
0.000298	-0.0316902	
0.000299	-0.0317501	
0.0003	-0.0317139	
0.000301	-0.031521	
0.000302	-0.031234	
0.000303	-0.0308984	
0.000304	-0.0306418	
0.000305	-0.0304494	
0.000306	-0.0302133	
0.000307	-0.0300547	
0.000308	-0.0300497	
0.000309	-0.0301463	
0.00031	-0.0303053	
0.000311	-0.0304978	
0.000312	-0.0307035	
0.000313	-0.030908	
0.000314	-0.0311021	
0.000315	-0.0312801	
0.000316	-0.0314392	
0.000317	-0.0314831	
0.000318	-0.031354	
0.000319	-0.0312119	
0.00032	-0.0311631	
0.000321	-0.0310831	
0.000322	-0.0308912	
0.000323	-0.0307296	
0.000324	-0.0305957	
0.000325	-0.0303913	
0.000326	-0.0302451	
0.000327	-0.0301443	
0.000328	-0.029983	
0.000329	-0.0298847	
0.00033	-0.0299274	
0.000331	-0.0300613	
0.000332	-0.0302488	
0.000333	-0.0303679	
0.000334	-0.0302459	
0.000335	-0.0299709	
0.000336	-0.029703	
0.000337	-0.0293574	
0.000338	-0.0289769	
0.000339	-0.0286865	
0.00034	-0.0284692	
0.000341	-0.0284054	
0.000342	-0.028541	
0.000343	-0.0287065	
0.000344	-0.0286939	
0.000345	-0.0285643	
0.000346	-0.0286489	
0.000347	-0.029061	
0.000348	-0.0295744	
0.000349	-0.0299401	
0.00035	-0.0300011	
0.000351	-0.0297632	
0.000352	-0.0293394	
0.000353	-0.0288132	
0.000354	-0.0283393	
0.000355	-0.0280175	
0.000356	-0.0277161	
0.000357	-0.0273473	
0.000358	-0.0269515	
0.000359	-0.0266517	
0.00036	-0.0266195	
0.000361	-0.0267653	
0.000362	-0.0269265	
0.000363	-0.0270902	
0.000364	-0.0271528	
0.000365	-0.0270506	
0.000366	-0.0268447	
0.000367	-0.0266751	
0.000368	-0.0266326	
0.000369	-0.0266759	
0.00037	-0.0268689	
0.000371	-0.0271513	
0.000372	-0.0272892	
0.000373	-0.0272303	
0.000374	-0.0270444	
0.000375	-0.0268786	
0.000376	-0.0268289	
0.000377	-0.0267632	
0.000378	-0.0265948	
0.000379	-0.0263668	
0.00038	-0.0261102	
0.000381	-0.025847	
0.000382	-0.0255917	
0.000383	-0.0253538	
0.000384	-0.0251387	
0.000385	-0.0249486	
0.000386	-0.0246891	
0.000387	-0.024301	
0.000388	-0.0239414	
0.000389	-0.0236178	
0.00039	-0.023143	
0.000391	-0.0224959	
0.000392	-0.0217657	
0.000393	-0.0210155	
0.000394	-0.0202873	
0.000395	-0.0196083	
0.000396	-0.0189937	
0.000397	-0.0184507	
0.000398	-0.0179805	
0.000399	-0.0174856	
0.0004	-0.0169027	
0.000401	-0.0163843	
0.000402	-0.0159332	
0.000403	-0.0153574	
0.000404	-0.0146317	
0.000405	-0.0139365	
0.000406	-0.0133894	
0.000407	-0.0128708	
0.000408	-0.0123003	
0.000409	-0.0117227	
0.00041	-0.0111677	
0.000411	-0.0106538	
0.000412	-0.0101914	
0.000413	-0.00978472	
0.000414	-0.00943409	
0.000415	-0.00913697	
0.000416	-0.0088892	
0.000417	-0.0085906	
0.000418	-0.00817755	
0.000419	-0.00780364	
0.00042	-0.00756829	
0.000421	-0.00734037	
0.000422	-0.00703305	
0.000423	-0.00678298	
0.000424	-0.0065825	
0.000425	-0.00632911	
0.000426	-0.0061479	
0.000427	-0.00611793	
0.000428	-0.00609401	
0.000429	-0.00588508	
0.00043	-0.00546897	
0.000431	-0.00493594	
0.000432	-0.00444611	
0.000433	-0.00410299	
0.000434	-0.00377776	
0.000435	-0.00338465	
0.000436	-0.00306044	
0.000437	-0.00289206	
0.000438	-0.00273932	
0.000439	-0.00250905	
0.00044	-0.00223856	
0.000441	-0.00195433	
0.000442	-0.00157942	
0.000443	-0.00106738	
0.000444	-0.000584212	
0.000445	-0.000238009	
0.000446	9.65861E-5	
0.000447	0.000502772	
0.000448	0.000841879	
0.000449	0.00112072	
0.00045	0.0014417	
0.000451	0.00177529	
0.000452	0.00219649	
0.000453	0.0027506	
0.000454	0.00336613	
0.000455	0.00408812	
0.000456	0.00494122	
0.000457	0.00574536	
0.000458	0.0063841	
0.000459	0.00688358	
0.00046	0.00726761	
0.000461	0.00755737	
0.000462	0.00786632	
0.000463	0.00826839	
0.000464	0.00861777	
0.000465	0.00882082	
0.000466	0.00891777	
0.000467	0.00894019	
0.000468	0.00891241	
0.000469	0.00885283	
0.00047	0.00877512	
0.000471	0.00868912	
0.000472	0.00860172	
0.000473	0.00861261	
0.000474	0.00878285	
0.000475	0.00905012	
0.000476	0.00946379	
0.000477	0.0100495	
0.000478	0.0107209	
0.000479	0.0114171	
0.00048	0.0120967	
0.000481	0.0126381	
0.000482	0.0129678	
0.000483	0.0132373	
0.000484	0.0135495	
0.000485	0.0139701	
0.000486	0.0145373	
0.000487	0.0150794	
0.000488	0.0161497	
0.000489	0.0185634	
0.00049	0.0218437	
0.000491	0.02516	
0.000492	0.0281531	
0.000493	0.0306964	
0.000494	0.0329179	
0.000495	0.0349173	
0.000496	0.0366756	
0.000497	0.0382869	
0.000498	0.0398201	
0.000499	0.0412293	
0.0005	0.042395	
0.000501	0.04325	
0.000502	0.0439548	
0.000503	0.0445271	
0.000504	0.04489	
0.000505	0.0450976	
0.000506	0.045193	
0.000507	0.04521	
0.000508	0.0451744	
0.000509	0.0451059	
0.00051	0.0450188	
0.000511	0.0449237	
0.000512	0.0448277	
0.000513	0.0448308	
0.000514	0.0449942	
0.000515	0.0452555	
0.000516	0.045569	
0.000517	0.0459021	
0.000518	0.0463274	
0.000519	0.0468885	
0.00052	0.0474175	
0.000521	0.0478052	
0.000522	0.0480815	
0.000523	0.0482712	
0.000524	0.0483949	
0.000525	0.0485643	
0.000526	0.0489458	
0.000527	0.0494493	
0.000528	0.0498192	
0.000529	0.0500835	
0.00053	0.0503608	
0.000531	0.0505385	
0.000532	0.0505469	
0.000533	0.0504435	
0.000534	0.0502711	
0.000535	0.0500614	
0.000536	0.0498371	
0.000537	0.0497087	
0.000538	0.0498399	
0.000539	0.050136	
0.00054	0.0504318	
0.000541	0.0507133	
0.000542	0.0508771	
0.000543	0.0509555	
0.000544	0.051164	
0.000545	0.0515435	
0.000546	0.0520178	
0.000547	0.0525322	
0.000548	0.0529537	
0.000549	0.0531988	
0.00055	0.0534111	
0.000551	0.0536869	
0.000552	0.0539914	
0.000553	0.0543005	
0.000554	0.054598	
0.000555	0.0548738	
0.000556	0.0552173	
0.000557	0.0556842	
0.000558	0.0561154	
0.000559	0.0564076	
0.00056	0.0565942	
0.000561	0.0567976	
0.000562	0.0570974	
0.000563	0.0573515	
0.000564	0.0575636	
0.000565	0.0578329	
0.000566	0.0580321	
0.000567	0.0581757	
0.000568	0.058371	
0.000569	0.058496	
0.00057	0.0585687	
0.000571	0.0586986	
0.000572	0.058765	
0.000573	0.0586913	
0.000574	0.0585287	
0.000575	0.0583153	
0.000576	0.0581734	
0.000577	0.0581805	
0.000578	0.0582855	
0.000579	0.0584501	
0.00058	0.0586462	
0.000581	0.0589488	
0.000582	0.0594025	
0.000583	0.0598392	
0.000584	0.060149	
0.000585	0.0604556	
0.000586	0.0608405	
0.000587	0.061259	
0.000588	0.0616798	
0.000589	0.0619871	
0.00059	0.0620149	
0.000591	0.0618572	
0.000592	0.0617747	
0.000593	0.0618407	
0.000594	0.0619065	
0.000595	0.061874	
0.000596	0.0618733	
0.000597	0.0619886	
0.000598	0.0621749	
0.000599	0.0623994	
0.0006	0.0626382	
0.000601	0.0628754	
0.000602	0.0631001	
0.000603	0.063211	
0.000604	0.0631465	
0.000605	0.0630645	
0.000606	0.0630699	
0.000607	0.0631326	
0.000608	0.0632302	
0.000609	0.0633462	
0.00061	0.0634688	
0.000611	0.06359	
0.000612	0.0637045	
0.000613	0.0638092	
0.000614	0.0639024	
0.000615	0.0639837	
0.000616	0.0640533	
0.000617	0.0641119	
0.000618	0.0641604	
0.000619	0.0642001	
0.00062	0.0642319	
0.000621	0.0642572	
0.000622	0.0642769	
0.000623	0.064292	
0.000624	0.0643034	
0.000625	0.0643117	
0.000626	0.0643177	
0.000627	0.0644169	
0.000628	0.0646679	
0.000629	0.0649121	
0.00063	0.0651403	
0.000631	0.0655372	
0.000632	0.0660266	
0.000633	0.0664588	
0.000634	0.0668329	
0.000635	0.0671508	
0.000636	0.0674168	
0.000637	0.0675409	
0.000638	0.0675654	
0.000639	0.0676184	
0.00064	0.0676875	
0.000641	0.0678591	
0.000642	0.0681852	
0.000643	0.0685977	
0.000644	0.0690478	
0.000645	0.0695013	
0.000646	0.0698405	
0.000647	0.0699933	
0.000648	0.070111	
0.000649	0.070295	
0.00065	0.0705141	
0.000651	0.0705558	
0.000652	0.0702885	
0.000653	0.0700201	
0.000654	0.0699539	
0.000655	0.0700242	
0.000656	0.0701811	
0.000657	0.0703876	
0.000658	0.0706172	
0.000659	0.0708511	
0.00066	0.0710768	
0.000661	0.0712863	
0.000662	0.0714754	
0.000663	0.071642	
0.000664	0.0716908	
0.000665	0.0715645	
0.000666	0.0714239	
0.000667	0.0713756	
0.000668	0.0713904	
0.000669	0.0714461	
0.00067	0.0716212	
0.000671	0.0719618	
0.000672	0.0723004	
0.000673	0.0725265	
0.000674	0.0726678	
0.000675	0.0727465	
0.000676	0.0727802	
0.000677	0.0727826	
0.000678	0.0727643	
0.000679	0.0727332	
0.00068	0.0726952	
0.000681	0.0726543	
0.000682	0.0726135	
0.000683	0.0725747	
0.000684	0.0726341	
0.000685	0.0728506	
0.000686	0.0730652	
0.000687	0.0731735	
0.000688	0.0733016	
0.000689	0.0735317	
0.00069	0.0737232	
0.000691	0.073785	
0.000692	0.0737585	
0.000693	0.0736749	
0.000694	0.0735577	
0.000695	0.0734239	
0.000696	0.0732854	
0.000697	0.0731504	
0.000698	0.0730241	
0.000699	0.0729095	
0.0007	0.072808	
0.000701	0.07272	
0.000702	0.0726451	
0.000703	0.0726773	
0.000704	0.0728738	
0.000705	0.0730742	
0.000706	0.0732677	
0.000707	0.0735426	
0.000708	0.0738581	
0.000709	0.0741855	
0.00071	0.0745053	
0.000711	0.0749	
0.000712	0.0753253	
0.000713	0.0755607	
0.000714	0.0755646	
0.000715	0.0754157	
0.000716	0.0751731	
0.000717	0.0748801	
0.000718	0.0745678	
0.000719	0.0742576	
0.00072	0.0739634	
0.000721	0.0736937	
0.000722	0.0735479	
0.000723	0.0735858	
0.000724	0.073648	
0.000725	0.0736282	
0.000726	0.0735552	
0.000727	0.0734506	
0.000728	0.0733302	
0.000729	0.073205	
0.00073	0.0731776	
0.000731	0.0733111	
0.000732	0.0734493	
0.000733	0.073489	
0.000734	0.0735569	
0.000735	0.0738304	
0.000736	0.0742265	
0.000737	0.0744945	
0.000738	0.0746654	
0.000739	0.0749543	
0.00074	0.0754025	
0.000741	0.0757443	
0.000742	0.0758097	
0.000743	0.0757848	
0.000744	0.0757016	
0.000745	0.0754887	
0.000746	0.0752005	
0.000747	0.0748762	
0.000748	0.0745434	
0.000749	0.0743159	
0.00075	0.0742636	
0.000751	0.0742343	
0.000752	0.0741263	
0.000753	0.0739717	
0.000754	0.0738887	
0.000755	0.0739519	
0.000756	0.0740134	
0.000757	0.0739759	
0.000758	0.0738748	
0.000759	0.0737365	
0.00076	0.0736754	
0.000761	0.0737632	
0.000762	0.0739449	
0.000763	0.074275	
0.000764	0.0747825	
0.000765	0.0753829	
0.000766	0.0759211	
0.000767	0.0762977	
0.000768	0.0766451	
0.000769	0.0770518	
0.00077	0.0774785	
0.000771	0.077898	
0.000772	0.0782931	
0.000773	0.0786534	
0.000774	0.0788785	
0.000775	0.0789089	
0.000776	0.0789045	
0.000777	0.0788773	
0.000778	0.0786463	
0.000779	0.0781967	
0.00078	0.0776244	
0.000781	0.0770931	
0.000782	0.0767092	
0.000783	0.0764406	
0.000784	0.0763558	
0.000785	0.0763962	
0.000786	0.0763271	
0.000787	0.0760939	
0.000788	0.0757637	
0.000789	0.0753851	
0.00079	0.0749924	
0.000791	0.0747042	
0.000792	0.0746886	
0.000793	0.0748534	
0.000794	0.0749393	
0.000795	0.0748741	
0.000796	0.0748073	
0.000797	0.0748377	
0.000798	0.0746456	
0.000799	0.0740307	
0.0008	0.0734512	
0.000801	0.0732077	
0.000802	0.0731023	
0.000803	0.0730928	
0.000804	0.0732421	
0.000805	0.073394	
0.000806	0.0734453	
0.000807	0.0734279	
0.000808	0.073366	
0.000809	0.0733727	
0.00081	0.0735195	
0.000811	0.0737517	
0.000812	0.0740292	
0.000813	0.0742283	
0.000814	0.0742714	
0.000815	0.0742094	
0.000816	0.0740812	
0.000817	0.0740104	
0.000818	0.0740759	
0.000819	0.074133	
0.00082	0.074087	
0.000821	0.073975	
0.000822	0.0738249	
0.000823	0.0736567	
0.000824	0.0734845	
0.000825	0.0733179	
0.000826	0.0731629	
0.000827	0.0730227	
0.000828	0.0729941	
0.000829	0.0731355	
0.00083	0.0732872	
0.000831	0.0733435	
0.000832	0.0733341	
0.000833	0.073282	
0.000834	0.0732041	
0.000835	0.0731129	
0.000836	0.0730172	
0.000837	0.0729231	
0.000838	0.0728346	
0.000839	0.0727538	
0.00084	0.072682	
0.000841	0.0726195	
0.000842	0.0724711	
0.000843	0.0721779	
0.000844	0.0718982	
0.000845	0.0717357	
0.000846	0.0716582	
0.000847	0.0716404	
0.000848	0.0716627	
0.000849	0.0717105	
0.00085	0.0717729	
0.000851	0.0718418	
0.000852	0.0719119	
0.000853	0.0719793	
0.000854	0.0720419	
0.000855	0.0721934	
0.000856	0.0724913	
0.000857	0.0727768	
0.000858	0.0729453	
0.000859	0.0730288	
0.00086	0.0730524	
0.000861	0.0731303	
0.000862	0.0733355	
0.000863	0.0735198	
0.000864	0.0735865	
0.000865	0.0735726	
0.000866	0.0735061	
0.000867	0.0734082	
0.000868	0.0732941	
0.000869	0.0731748	
0.00087	0.0730577	
0.000871	0.0729476	
0.000872	0.0727522	
0.000873	0.0723197	
0.000874	0.0717513	
0.000875	0.0713103	
0.000876	0.0709742	
0.000877	0.0706281	
0.000878	0.0703869	
0.000879	0.0702261	
0.00088	0.0699359	
0.000881	0.0695741	
0.000882	0.0693724	
0.000883	0.0692856	
0.000884	0.0690887	
0.000885	0.0688285	
0.000886	0.0686339	
0.000887	0.0683967	
0.000888	0.0680476	
0.000889	0.0676411	
0.00089	0.0673112	
0.000891	0.0671424	
0.000892	0.0669928	
0.000893	0.0667678	
0.000894	0.0665037	
0.000895	0.0662264	
0.000896	0.0659535	
0.000897	0.0656963	
0.000898	0.0655568	
0.000899	0.0656917	
0.0009	0.066001	
0.000901	0.0662205	
0.000902	0.0662755	
0.000903	0.0662193	
0.000904	0.0660925	
0.000905	0.0659252	
0.000906	0.065739	
0.000907	0.0655492	
0.000908	0.0653659	
0.000909	0.0651958	
0.00091	0.0650422	
0.000911	0.0649069	
0.000912	0.06479	
0.000913	0.0646907	
0.000914	0.0646078	
0.000915	0.0645396	
0.000916	0.0644844	
0.000917	0.0644402	
0.000918	0.0643104	
0.000919	0.0640352	
0.00092	0.0637723	
0.000921	0.0635298	
0.000922	0.0632172	
0.000923	0.0629683	
0.000924	0.0628682	
0.000925	0.0628709	
0.000926	0.0629413	
0.000927	0.063053	
0.000928	0.0630916	
0.000929	0.0629851	
0.00093	0.062883	
0.000931	0.0628837	
0.000932	0.0629522	
0.000933	0.0630621	
0.000934	0.0630991	
0.000935	0.0629912	
0.000936	0.0628879	
0.000937	0.0628876	
0.000938	0.0628601	
0.000939	0.062721	
0.00094	0.0626099	
0.000941	0.0626176	
0.000942	0.0626082	
0.000943	0.0624929	
0.000944	0.0623133	
0.000945	0.0620997	
0.000946	0.0618738	
0.000947	0.0615554	
0.000948	0.0611911	
0.000949	0.0609088	
0.00095	0.0605989	
0.000951	0.0601904	
0.000952	0.0597361	
0.000953	0.0592732	
0.000954	0.0588265	
0.000955	0.0584116	
0.000956	0.0582274	
0.000957	0.0583942	
0.000958	0.0585944	
0.000959	0.058617	
0.00096	0.0585214	
0.000961	0.0583524	
0.000962	0.0581431	
0.000963	0.057917	
0.000964	0.0576906	
0.000965	0.0574746	
0.000966	0.0572758	
0.000967	0.0570977	
0.000968	0.0569416	
0.000969	0.0568075	
0.00097	0.0566942	
0.000971	0.0565999	
0.000972	0.0565227	
0.000973	0.0564604	
0.000974	0.0564109	
0.000975	0.0560869	
0.000976	0.055312	
0.000977	0.0544667	
0.000978	0.053805	
0.000979	0.0533908	
0.00098	0.0532544	
0.000981	0.0533076	
0.000982	0.0533883	
0.000983	0.0533882	
0.000984	0.0534299	
0.000985	0.0534972	
0.000986	0.0533881	
0.000987	0.0530727	
0.000988	0.0527312	
0.000989	0.0524839	
0.00099	0.0522152	
0.000991	0.0518501	
0.000992	0.0514387	
0.000993	0.0510162	
0.000994	0.0507014	
