Time - Plot 0	Amplitude - Plot 0	
0	0.149804	
5E-6	0.151634	
1E-5	0.153465	
1.5E-5	0.155352	
2E-5	0.157234	
2.5E-5	0.159072	
3E-5	0.160841	
3.5E-5	0.162481	
4E-5	0.164006	
4.5E-5	0.165478	
5E-5	0.16694	
5.5E-5	0.168375	
6E-5	0.169771	
6.5E-5	0.17117	
7E-5	0.172601	
7.5E-5	0.17408	
8E-5	0.175567	
8.5E-5	0.176991	
9E-5	0.178305	
9.5E-5	0.179532	
0.0001	0.180739	
0.000105	0.181922	
0.00011	0.183035	
0.000115	0.184048	
0.00012	0.184995	
0.000125	0.185949	
0.00013	0.18691	
0.000135	0.18783	
0.00014	0.188679	
0.000145	0.189442	
0.00015	0.190111	
0.000155	0.190688	
0.00016	0.191176	
0.000165	0.191582	
0.00017	0.191963	
0.000175	0.192404	
0.00018	0.192911	
0.000185	0.193438	
0.00019	0.193954	
0.000195	0.194437	
0.0002	0.194924	
0.000205	0.195437	
0.00021	0.195896	
0.000215	0.196251	
0.00022	0.196567	
0.000225	0.19689	
0.00023	0.197155	
0.000235	0.197369	
0.00024	0.197587	
0.000245	0.19775	
0.00025	0.197821	
0.000255	0.197829	
0.00026	0.197794	
0.000265	0.197732	
0.00027	0.197609	
0.000275	0.197356	
0.00028	0.196981	
0.000285	0.196544	
0.00029	0.196134	
0.000295	0.195809	
0.0003	0.195507	
0.000305	0.195189	
0.00031	0.194873	
0.000315	0.194575	
0.00032	0.194254	
0.000325	0.19384	
0.00033	0.193335	
0.000335	0.192794	
0.00034	0.192208	
0.000345	0.191525	
0.00035	0.190762	
0.000355	0.189983	
0.00036	0.18923	
0.000365	0.188482	
0.00037	0.187679	
0.000375	0.186876	
0.00038	0.186159	
0.000385	0.185486	
0.00039	0.184825	
0.000395	0.184156	
0.0004	0.183419	
0.000405	0.182624	
0.00041	0.181828	
0.000415	0.181022	
0.00042	0.180152	
0.000425	0.179234	
0.00043	0.17828	
0.000435	0.177252	
0.00044	0.176177	
0.000445	0.175121	
0.00045	0.174128	
0.000455	0.173176	
0.00046	0.1722	
0.000465	0.171161	
0.00047	0.170033	
0.000475	0.168853	
0.00048	0.167694	
0.000485	0.166604	
0.00049	0.165564	
0.000495	0.164558	
0.0005	0.163622	
0.000505	0.162681	
0.00051	0.161639	
0.000515	0.160533	
0.00052	0.159388	
0.000525	0.158225	
0.00053	0.157105	
0.000535	0.156018	
0.00054	0.154958	
0.000545	0.153965	
0.00055	0.153063	
0.000555	0.152216	
0.00056	0.151352	
0.000565	0.150468	
0.00057	0.149613	
0.000575	0.148771	
0.00058	0.147882	
0.000585	0.146956	
0.00059	0.146002	
0.000595	0.14498	
0.0006	0.143914	
0.000605	0.142869	
0.00061	0.14184	
0.000615	0.140775	
0.00062	0.139641	
0.000625	0.138421	
0.00063	0.137154	
0.000635	0.135917	
0.00064	0.134756	
0.000645	0.133702	
0.00065	0.132721	
0.000655	0.131738	
0.00066	0.130753	
0.000665	0.129814	
0.00067	0.128949	
0.000675	0.128127	
0.00068	0.127277	
0.000685	0.1264	
0.00069	0.125548	
0.000695	0.124752	
0.0007	0.123984	
0.000705	0.123175	
0.00071	0.12233	
0.000715	0.1215	
0.00072	0.120721	
0.000725	0.119964	
0.00073	0.11921	
0.000735	0.118493	
0.00074	0.117788	
0.000745	0.117028	
0.00075	0.116173	
0.000755	0.115249	
0.00076	0.114322	
0.000765	0.113438	
0.00077	0.112623	
0.000775	0.111893	
0.00078	0.111206	
0.000785	0.110484	
0.00079	0.109726	
0.000795	0.108933	
0.0008	0.108106	
0.000805	0.107296	
0.00081	0.106489	
0.000815	0.105673	
0.00082	0.104891	
0.000825	0.10412	
0.00083	0.103345	
0.000835	0.102653	
0.00084	0.102094	
0.000845	0.101603	
0.00085	0.101085	
0.000855	0.100478	
0.00086	0.0997936	
0.000865	0.0990908	
0.00087	0.0984089	
0.000875	0.0978207	
0.00088	0.097322	
0.000885	0.0968109	
0.00089	0.0962682	
0.000895	0.0957304	
0.0009	0.0952212	
0.000905	0.094755	
0.00091	0.0943391	
0.000915	0.0939762	
0.00092	0.0936653	
0.000925	0.0934034	
0.00093	0.0931862	
0.000935	0.0929612	
0.00094	0.0926467	
0.000945	0.092288	
0.00095	0.0919646	
0.000955	0.0916324	
0.00096	0.09131	
0.000965	0.0910568	
0.00097	0.0908138	
0.000975	0.0905889	
0.00098	0.0904341	
0.000985	0.0902854	
0.00099	0.0901477	
0.000995	0.0900714	
0.001	0.089944	
0.001005	0.0896938	
0.00101	0.0894222	
0.001015	0.0891967	
0.00102	0.0889649	
0.001025	0.0886922	
0.00103	0.088453	
0.001035	0.0882949	
0.00104	0.0881975	
0.001045	0.0881449	
0.00105	0.0881243	
0.001055	0.0881257	
0.00106	0.0881417	
0.001065	0.0881188	
0.00107	0.088024	
0.001075	0.0879337	
0.00108	0.0878983	
0.001085	0.0879006	
0.00109	0.0879278	
0.001095	0.08797	
0.0011	0.0880202	
0.001105	0.0880732	
0.00111	0.0881257	
0.001115	0.0881752	
0.00112	0.0882205	
0.001125	0.0882609	
0.00113	0.0883436	
0.001135	0.0884979	
0.00114	0.088692	
0.001145	0.0889033	
0.00115	0.0890683	
0.001155	0.0891475	
0.00116	0.0892139	
0.001165	0.0893638	
0.00117	0.0896092	
0.001175	0.0899059	
0.00118	0.0902225	
0.001185	0.0905847	
0.00119	0.0910074	
0.001195	0.0914024	
0.0012	0.0917606	
0.001205	0.0921725	
0.00121	0.092648	
0.001215	0.0931428	
0.00122	0.093627	
0.001225	0.0941289	
0.00123	0.0947137	
0.001235	0.0954207	
0.00124	0.0962222	
0.001245	0.0970007	
0.00125	0.0977271	
0.001255	0.0972916	
0.00126	0.094019	
0.001265	0.088365	
0.00127	0.0818837	
0.001275	0.0755913	
0.00128	0.0701013	
0.001285	0.0656377	
0.00129	0.0622997	
0.001295	0.0600993	
0.0013	0.0588958	
0.001305	0.0585015	
0.00131	0.0587544	
0.001315	0.0595648	
0.00132	0.060847	
0.001325	0.0624272	
0.00133	0.0641766	
0.001335	0.0660975	
0.00134	0.0681832	
0.001345	0.070374	
0.00135	0.0726256	
0.001355	0.0749057	
0.00136	0.077192	
0.001365	0.0794692	
0.00137	0.0817278	
0.001375	0.0839149	
0.00138	0.0859513	
0.001385	0.0877921	
0.00139	0.0894644	
0.001395	0.0910416	
0.0014	0.0925765	
0.001405	0.094106	
0.00141	0.0956072	
0.001415	0.0970662	
0.00142	0.0984759	
0.001425	0.0997864	
0.00143	0.10097	
0.001435	0.102013	
0.00144	0.102962	
0.001445	0.103852	
0.00145	0.10466	
0.001455	0.105377	
0.00146	0.106047	
0.001465	0.106702	
0.00147	0.107316	
0.001475	0.107921	
0.00148	0.10854	
0.001485	0.109138	
0.00149	0.109694	
0.001495	0.110197	
0.0015	0.110593	
0.001505	0.110852	
0.00151	0.111056	
0.001515	0.111262	
0.00152	0.111459	
0.001525	0.111641	
0.00153	0.111805	
0.001535	0.111901	
0.00154	0.111854	
0.001545	0.111713	
0.00155	0.111565	
0.001555	0.111373	
0.00156	0.111159	
0.001565	0.11099	
0.00157	0.110858	
0.001575	0.110756	
0.00158	0.110584	
0.001585	0.110279	
0.00159	0.109949	
0.001595	0.109617	
0.0016	0.109204	
0.001605	0.108711	
0.00161	0.108188	
0.001615	0.107669	
0.00162	0.107179	
0.001625	0.106682	
0.00163	0.10611	
0.001635	0.105467	
0.00164	0.104809	
0.001645	0.104171	
0.00165	0.103577	
0.001655	0.102992	
0.00166	0.102346	
0.001665	0.101643	
0.00167	0.100888	
0.001675	0.100039	
0.00168	0.0991209	
0.001685	0.0981531	
0.00169	0.0971032	
0.001695	0.0960013	
0.0017	0.0948697	
0.001705	0.0937246	
0.00171	0.0926246	
0.001715	0.0915589	
0.00172	0.0905187	
0.001725	0.0894969	
0.00173	0.0884406	
0.001735	0.087364	
0.00174	0.0862772	
0.001745	0.0851402	
0.00175	0.0839763	
0.001755	0.0828021	
0.00176	0.0815817	
0.001765	0.0803409	
0.00177	0.0790979	
0.001775	0.0778171	
0.00178	0.076572	
0.001785	0.0754569	
0.00179	0.0744326	
0.001795	0.0734692	
0.0018	0.0725439	
0.001805	0.0714974	
0.00181	0.0702303	
0.001815	0.0688302	
0.00182	0.0674086	
0.001825	0.0660875	
0.00183	0.0648953	
0.001835	0.0637494	
0.00184	0.0625931	
0.001845	0.0613895	
0.00185	0.0601642	
0.001855	0.0589825	
0.00186	0.057838	
0.001865	0.0565819	
0.00187	0.055169	
0.001875	0.0537672	
0.00188	0.052439	
0.001885	0.0511745	
0.00189	0.0500119	
0.001895	0.0489715	
0.0019	0.0480132	
0.001905	0.0470595	
0.00191	0.0460587	
0.001915	0.0450267	
0.00192	0.044023	
0.001925	0.0430378	
0.00193	0.0420163	
0.001935	0.0409243	
0.00194	0.0397897	
0.001945	0.0386333	
0.00195	0.0374221	
0.001955	0.0361845	
0.00196	0.034988	
0.001965	0.0338753	
0.00197	0.0328704	
0.001975	0.0319366	
0.00198	0.0309512	
0.001985	0.0298833	
0.00199	0.0288592	
0.001995	0.0279122	
0.002	0.0269659	
0.002005	0.0260173	
0.00201	0.0250644	
0.002015	0.0240587	
0.00202	0.0230183	
0.002025	0.0219566	
0.00203	0.0208361	
0.002035	0.0196822	
0.00204	0.0185609	
0.002045	0.0174665	
0.00205	0.0163467	
0.002055	0.0152154	
0.00206	0.0141302	
0.002065	0.0130791	
0.00207	0.0120051	
0.002075	0.0109193	
0.00208	0.00987705	
0.002085	0.00891285	
0.00209	0.00804569	
0.002095	0.007236	
0.0021	0.00640742	
0.002105	0.00555805	
0.00211	0.00473514	
0.002115	0.0039686	
0.00212	0.00327548	
0.002125	0.00261602	
0.00213	0.00191487	
0.002135	0.00117186	
0.00214	0.000436394	
0.002145	-0.000259312	
0.00215	-0.000895898	
0.002155	-0.00151093	
0.00216	-0.00217773	
0.002165	-0.00289466	
0.00217	-0.00361074	
0.002175	-0.00429238	
0.00218	-0.00491908	
0.002185	-0.00552745	
0.00219	-0.00619003	
0.002195	-0.00690454	
0.0022	-0.00761951	
0.002205	-0.00830096	
0.00221	-0.00897561	
0.002215	-0.00970894	
0.00222	-0.0104938	
0.002225	-0.0112755	
0.00223	-0.0120182	
0.002235	-0.0127001	
0.00224	-0.0133095	
0.002245	-0.0138424	
0.00225	-0.0142996	
0.002255	-0.0147328	
0.00226	-0.0152248	
0.002265	-0.0157798	
0.00227	-0.0163501	
0.002275	-0.0169035	
0.00228	-0.0174196	
0.002285	-0.0178391	
0.00229	-0.0181276	
0.002295	-0.0183637	
0.0023	-0.0186014	
0.002305	-0.0188291	
0.00231	-0.0190869	
0.002315	-0.0193998	
0.00232	-0.0197344	
0.002325	-0.0200674	
0.00233	-0.0203836	
0.002335	-0.0207213	
0.00234	-0.0211047	
0.002345	-0.0215002	
0.00235	-0.0219324	
0.002355	-0.0224635	
0.00236	-0.0230346	
0.002365	-0.0235577	
0.00237	-0.0240717	
0.002375	-0.0246031	
0.00238	-0.0250733	
0.002385	-0.0253858	
0.00239	-0.0255795	
0.002395	-0.0257808	
0.0024	-0.0260252	
0.002405	-0.0262864	
0.00241	-0.0265463	
0.002415	-0.0267931	
0.00242	-0.0270195	
0.002425	-0.0271743	
0.00243	-0.027227	
0.002435	-0.0272575	
0.00244	-0.0273193	
0.002445	-0.0273989	
0.00245	-0.0274865	
0.002455	-0.0275752	
0.00246	-0.0276129	
0.002465	-0.0275201	
0.00247	-0.0272031	
0.002475	-0.0267056	
0.00248	-0.0262554	
0.002485	-0.0259051	
0.00249	-0.0255897	
0.002495	-0.0253123	
0.0025	-0.025073	
0.002505	-0.0248702	
0.00251	-0.024701	
0.002515	-0.0245145	
0.00252	-0.0242778	
0.002525	-0.0240192	
0.00253	-0.0237109	
0.002535	-0.0233369	
0.00254	-0.0228897	
0.002545	-0.0222727	
0.00255	-0.0214305	
0.002555	-0.0202893	
0.00256	-0.0187199	
0.002565	-0.0167522	
0.00257	-0.0144723	
0.002575	-0.0119043	
0.00258	-0.00912512	
0.002585	-0.00629069	
0.00259	-0.0034588	
0.002595	-0.000572379	
0.0026	0.00230854	
0.002605	0.00509711	
0.00261	0.00778797	
0.002615	0.0103822	
0.00262	0.0128375	
0.002625	0.0150852	
0.00263	0.0171371	
0.002635	0.0191056	
0.00264	0.021116	
0.002645	0.0231066	
0.00265	0.0249424	
0.002655	0.0266368	
0.00266	0.028253	
0.002665	0.0298361	
0.00267	0.0313702	
0.002675	0.0327994	
0.00268	0.0341393	
0.002685	0.0354521	
0.00269	0.03678	
0.002695	0.0381501	
0.0027	0.0395307	
0.002705	0.040853	
0.00271	0.0420743	
0.002715	0.0432188	
0.00272	0.0443535	
0.002725	0.0454757	
0.00273	0.0465841	
0.002735	0.0476785	
0.00274	0.0487119	
0.002745	0.0497038	
0.00275	0.0506689	
0.002755	0.0515707	
0.00276	0.0524356	
0.002765	0.0533304	
0.00277	0.0542501	
0.002775	0.0551427	
0.00278	0.0559752	
0.002785	0.0567763	
0.00279	0.0575663	
0.002795	0.0583116	
0.0028	0.0590398	
0.002805	0.0597697	
0.00281	0.0604662	
0.002815	0.0611079	
0.00282	0.0617305	
0.002825	0.0624061	
0.00283	0.0630848	
0.002835	0.0636859	
0.00284	0.0642073	
0.002845	0.0646516	
0.00285	0.0650716	
0.002855	0.0655031	
0.00286	0.0659219	
0.002865	0.0663125	
0.00287	0.066666	
0.002875	0.0669783	
0.00288	0.0672012	
0.002885	0.0672595	
0.00289	0.067159	
0.002895	0.0670061	
0.0029	0.0669209	
0.002905	0.0669319	
0.00291	0.0670058	
0.002915	0.0671178	
0.00292	0.0672495	
0.002925	0.0673404	
0.00293	0.0673527	
0.002935	0.06736	
0.00294	0.0673638	
0.002945	0.0673174	
0.00295	0.0672402	
0.002955	0.0670988	
0.00296	0.0669218	
0.002965	0.0668246	
0.00297	0.0667848	
0.002975	0.0667372	
0.00298	0.0667341	
0.002985	0.0668081	
0.00299	0.0668819	
0.002995	0.066857	
0.003	0.0667206	
0.003005	0.0665173	
0.00301	0.0662793	
0.003015	0.0659823	
0.00302	0.0655653	
0.003025	0.0650414	
0.00303	0.0644718	
0.003035	0.0638515	
0.00304	0.0631795	
0.003045	0.0625052	
0.00305	0.0618138	
0.003055	0.0610962	
0.00306	0.0603954	
0.003065	0.0597387	
0.00307	0.0590947	
0.003075	0.0583944	
0.00308	0.0576426	
0.003085	0.0568923	
0.00309	0.0561786	
0.003095	0.0555228	
0.0031	0.0549361	
0.003105	0.0543752	
0.00311	0.0538104	
0.003115	0.0532696	
0.00312	0.0526752	
0.003125	0.051931	
0.00313	0.0510281	
0.003135	0.0500157	
0.00314	0.0490266	
0.003145	0.0480997	
0.00315	0.0471624	
0.003155	0.0462152	
0.00316	0.0453062	
0.003165	0.0444654	
0.00317	0.0436618	
0.003175	0.0428256	
0.00318	0.04196	
0.003185	0.041116	
0.00319	0.040326	
0.003195	0.0395616	
0.0032	0.0387551	
0.003205	0.0378639	
0.00321	0.0368639	
0.003215	0.035792	
0.00322	0.0347709	
0.003225	0.0338791	
0.00323	0.0330672	
0.003235	0.0322514	
0.00324	0.0313764	
0.003245	0.0304564	
0.00325	0.02955	
0.003255	0.0286957	
0.00326	0.0278684	
0.003265	0.0270031	
0.00327	0.0260586	
0.003275	0.0250589	
0.00328	0.0241177	
0.003285	0.0232596	
0.00329	0.0224018	
0.003295	0.0215848	
0.0033	0.0208808	
0.003305	0.0202371	
0.00331	0.0196161	
0.003315	0.0189919	
0.00332	0.0183	
0.003325	0.0175487	
0.00333	0.0167462	
0.003335	0.0158528	
0.00334	0.0148943	
0.003345	0.0139381	
0.00335	0.0130287	
0.003355	0.0121931	
0.00336	0.0114458	
0.003365	0.0107444	
0.00337	0.0100114	
0.003375	0.0092448	
0.00338	0.00849221	
0.003385	0.00773693	
0.00339	0.00696808	
0.003395	0.00622664	
0.0034	0.0054908	
0.003405	0.00474593	
0.00341	0.0039828	
0.003415	0.00314865	
0.00342	0.00225959	
0.003425	0.00137639	
0.00343	0.000586343	
0.003435	-5.737E-5	
0.00344	-0.000621691	
0.003445	-0.00115451	
0.00345	-0.00164135	
0.003455	-0.0021224	
0.00346	-0.00267193	
0.003465	-0.00328817	
0.00347	-0.00391925	
0.003475	-0.00453025	
0.00348	-0.00514666	
0.003485	-0.00583255	
0.00349	-0.00657935	
0.003495	-0.00733098	
0.0035	-0.00809778	
0.003505	-0.00893339	
0.00351	-0.00977485	
0.003515	-0.0105328	
0.00352	-0.0112474	
0.003525	-0.0118997	
0.00353	-0.0124324	
0.003535	-0.0129086	
0.00354	-0.0133727	
0.003545	-0.0138067	
0.00355	-0.0142479	
0.003555	-0.0147206	
0.00356	-0.0151441	
0.003565	-0.0154676	
0.00357	-0.0157575	
0.003575	-0.0160589	
0.00358	-0.0163062	
0.003585	-0.0165061	
0.00359	-0.0167604	
0.003595	-0.017086	
0.0036	-0.0173958	
0.003605	-0.0176329	
0.00361	-0.0178584	
0.003615	-0.0181131	
0.00362	-0.0183751	
0.003625	-0.0186294	
0.00363	-0.0188667	
0.003635	-0.0190815	
0.00364	-0.0192713	
0.003645	-0.0194357	
0.00365	-0.0195755	
0.003655	-0.0196925	
0.00366	-0.019789	
0.003665	-0.0198673	
0.00367	-0.01993	
0.003675	-0.0200269	
0.00368	-0.0202369	
0.003685	-0.0205115	
0.00369	-0.0207682	
0.003695	-0.0210485	
0.0037	-0.0213311	
0.003705	-0.0215067	
0.00371	-0.0216035	
0.003715	-0.0216914	
0.00372	-0.0217216	
0.003725	-0.0217123	
0.00373	-0.0217726	
0.003735	-0.0218759	
0.00374	-0.0219075	
0.003745	-0.0218429	
0.00375	-0.0217179	
0.003755	-0.021559	
0.00376	-0.0213853	
0.003765	-0.0212099	
0.00377	-0.0210418	
0.003775	-0.020839	
0.00378	-0.0205752	
0.003785	-0.0203313	
0.00379	-0.0201596	
0.003795	-0.019996	
0.0038	-0.0197505	
0.003805	-0.019415	
0.00381	-0.0190361	
0.003815	-0.0186465	
0.00382	-0.0182682	
0.003825	-0.0175826	
0.00383	-0.0159186	
0.003835	-0.0130228	
0.00384	-0.00911901	
0.003845	-0.00445002	
0.00385	0.000740345	
0.003855	0.00621911	
0.00386	0.0118191	
0.003865	0.0174242	
0.00387	0.0229577	
0.003875	0.028325	
0.00388	0.0334238	
0.003885	0.0385322	
0.00389	0.0441185	
0.003895	0.0500883	
0.0039	0.0560762	
0.003905	0.0618879	
0.00391	0.067451	
0.003915	0.0727774	
0.00392	0.0778384	
0.003925	0.0826275	
0.00393	0.087201	
0.003935	0.0915587	
0.00394	0.0956631	
0.003945	0.0995013	
0.00395	0.103125	
0.003955	0.106626	
0.00396	0.110024	
0.003965	0.113287	
0.00397	0.116403	
0.003975	0.119369	
0.00398	0.122191	
0.003985	0.12488	
0.00399	0.127401	
0.003995	0.12974	
0.004	0.131991	
0.004005	0.13422	
0.00401	0.136377	
0.004015	0.138478	
0.00402	0.140588	
0.004025	0.142649	
0.00403	0.14463	
0.004035	0.146558	
0.00404	0.148455	
0.004045	0.150338	
0.00405	0.152217	
0.004055	0.154052	
0.00406	0.155772	
0.004065	0.157381	
0.00407	0.158937	
0.004075	0.160431	
0.00408	0.161815	
0.004085	0.163107	
0.00409	0.164373	
0.004095	0.165656	
0.0041	0.166986	
0.004105	0.168331	
0.00411	0.169623	
0.004115	0.170818	
0.00412	0.171893	
0.004125	0.172885	
0.00413	0.173871	
0.004135	0.174854	
0.00414	0.175788	
0.004145	0.176693	
0.00415	0.177585	
0.004155	0.178425	
0.00416	0.179238	
0.004165	0.180043	
0.00417	0.180853	
0.004175	0.181674	
0.00418	0.182417	
0.004185	0.183025	
0.00419	0.183564	
0.004195	0.184126	
0.0042	0.184724	
0.004205	0.185271	
0.00421	0.18571	
0.004215	0.186105	
0.00422	0.1865	
0.004225	0.186828	
0.00423	0.18705	
0.004235	0.187238	
0.00424	0.187443	
0.004245	0.187649	
0.00425	0.187846	
0.004255	0.188028	
0.00426	0.188191	
0.004265	0.188335	
0.00427	0.18841	
0.004275	0.188343	
0.00428	0.188185	
0.004285	0.188021	
0.00429	0.187814	
0.004295	0.187541	
0.0043	0.187237	
0.004305	0.18688	
0.00431	0.186457	
0.004315	0.186058	
0.00432	0.185694	
0.004325	0.185275	
0.00433	0.184792	
0.004335	0.184289	
0.00434	0.183798	
0.004345	0.18329	
0.00435	0.182747	
0.004355	0.182206	
0.00436	0.181646	
0.004365	0.181051	
0.00437	0.180462	
0.004375	0.179857	
0.00438	0.179175	
0.004385	0.178474	
0.00439	0.177842	
0.004395	0.177237	
0.0044	0.176631	
0.004405	0.176006	
0.00441	0.175303	
0.004415	0.174534	
0.00442	0.17371	
0.004425	0.172794	
0.00443	0.171861	
0.004435	0.171008	
0.00444	0.170153	
0.004445	0.169194	
0.00445	0.168166	
0.004455	0.167187	
0.00446	0.166334	
0.004465	0.165558	
0.00447	0.164774	
0.004475	0.163927	
0.00448	0.163031	
0.004485	0.162144	
0.00449	0.161306	
0.004495	0.160492	
0.0045	0.159637	
0.004505	0.158749	
0.00451	0.15788	
0.004515	0.157017	
0.00452	0.156152	
0.004525	0.155374	
0.00453	0.15469	
0.004535	0.154005	
0.00454	0.153258	
0.004545	0.152408	
0.00455	0.151485	
0.004555	0.150509	
0.00456	0.149449	
0.004565	0.148337	
0.00457	0.147242	
0.004575	0.146211	
0.00458	0.145223	
0.004585	0.144216	
0.00459	0.143195	
0.004595	0.142214	
0.0046	0.141306	
0.004605	0.140488	
0.00461	0.139722	
0.004615	0.13893	
0.00462	0.138064	
0.004625	0.137095	
0.00463	0.136056	
0.004635	0.135021	
0.00464	0.134037	
0.004645	0.133132	
0.00465	0.132276	
0.004655	0.131398	
0.00466	0.130498	
0.004665	0.129627	
0.00467	0.128815	
0.004675	0.128035	
0.00468	0.127169	
0.004685	0.126192	
0.00469	0.125189	
0.004695	0.124215	
0.0047	0.123355	
0.004705	0.12261	
0.00471	0.121881	
0.004715	0.12115	
0.00472	0.120452	
0.004725	0.119761	
0.00473	0.119013	
0.004735	0.118214	
0.00474	0.117421	
0.004745	0.11662	
0.00475	0.115757	
0.004755	0.114848	
0.00476	0.113949	
0.004765	0.113102	
0.00477	0.112327	
0.004775	0.111637	
0.00478	0.111036	
0.004785	0.110522	
0.00479	0.110041	
0.004795	0.109511	
0.0048	0.108926	
0.004805	0.108284	
0.00481	0.10754	
0.004815	0.106717	
0.00482	0.10588	
0.004825	0.105074	
0.00483	0.104327	
0.004835	0.103605	
0.00484	0.102888	
0.004845	0.102207	
0.00485	0.101535	
0.004855	0.100852	
0.00486	0.100196	
0.004865	0.0995875	
0.00487	0.0990394	
0.004875	0.0985571	
0.00488	0.098141	
0.004885	0.0977882	
0.00489	0.0974938	
0.004895	0.0972043	
0.0049	0.0968842	
0.004905	0.0965591	
0.00491	0.0961985	
0.004915	0.0957841	
0.00492	0.0953061	
0.004925	0.0947614	
0.00493	0.094246	
0.004935	0.0938218	
0.00494	0.0934778	
0.004945	0.093203	
0.00495	0.0929867	
0.004955	0.0928194	
0.00496	0.0926921	
0.004965	0.0925498	
0.00497	0.0923568	
0.004975	0.0921869	
0.00498	0.092088	
0.004985	0.0919929	
0.00499	0.0918098	
0.004995	0.0915298	
0.005	0.0911992	
0.005005	0.0908983	
0.00501	0.0906788	
0.005015	0.0904759	
0.00502	0.0902459	
0.005025	0.0900089	
0.00503	0.0898261	
0.005035	0.0897827	
0.00504	0.0898809	
0.005045	0.0900201	
0.00505	0.0900849	
0.005055	0.0900498	
0.00506	0.0899507	
0.005065	0.089814	
0.00507	0.0897065	
0.005075	0.0896709	
0.00508	0.0896369	
0.005085	0.0896055	
0.00509	0.0896248	
0.005095	0.0896292	
0.0051	0.0895759	
0.005105	0.0895347	
0.00511	0.0895509	
0.005115	0.0896042	
0.00512	0.0897271	
0.005125	0.0899374	
0.00513	0.090148	
0.005135	0.0903012	
0.00514	0.0904569	
0.005145	0.0906544	
0.00515	0.0908702	
0.005155	0.0910877	
0.00516	0.0912962	
0.005165	0.0914888	
0.00517	0.0916618	
0.005175	0.0918613	
0.00518	0.0921639	
0.005185	0.0925201	
0.00519	0.0928473	
0.005195	0.0931874	
0.0052	0.0935676	
0.005205	0.093956	
0.00521	0.0943317	
0.005215	0.0946811	
