Time - Plot 0	Amplitude - Plot 0	
0	0.0776043	
5E-6	0.0773274	
1E-5	0.077005	
1.5E-5	0.0767155	
2E-5	0.0764612	
2.5E-5	0.0761473	
3E-5	0.0757612	
3.5E-5	0.0753459	
4E-5	0.0748833	
4.5E-5	0.0743165	
5E-5	0.0736602	
5.5E-5	0.0730234	
6E-5	0.0724297	
6.5E-5	0.0717973	
7E-5	0.0711219	
7.5E-5	0.0704024	
8E-5	0.0696404	
8.5E-5	0.0688389	
9E-5	0.0679542	
9.5E-5	0.0670089	
0.0001	0.0661159	
0.000105	0.0653472	
0.00011	0.0646017	
0.000115	0.0637642	
0.00012	0.062858	
0.000125	0.0619495	
0.00013	0.0610349	
0.000135	0.0600644	
0.00014	0.0590554	
0.000145	0.0582114	
0.00015	0.057421	
0.000155	0.0562756	
0.00016	0.0549502	
0.000165	0.053759	
0.00017	0.0526651	
0.000175	0.0516395	
0.00018	0.0507075	
0.000185	0.0498337	
0.00019	0.0489446	
0.000195	0.0479923	
0.0002	0.046996	
0.000205	0.0460176	
0.00021	0.0450499	
0.000215	0.0440399	
0.00022	0.0430023	
0.000225	0.0419479	
0.00023	0.0408849	
0.000235	0.0398665	
0.00024	0.0388781	
0.000245	0.0379086	
0.00025	0.0369976	
0.000255	0.0361206	
0.00026	0.0352125	
0.000265	0.0342792	
0.00027	0.033326	
0.000275	0.0323097	
0.00028	0.0312522	
0.000285	0.0301701	
0.00029	0.0290755	
0.000295	0.0280243	
0.0003	0.0269565	
0.000305	0.025833	
0.00031	0.0247261	
0.000315	0.0236349	
0.00032	0.0225581	
0.000325	0.0215417	
0.00033	0.0205657	
0.000335	0.019615	
0.00034	0.0187259	
0.000345	0.017872	
0.00035	0.017034	
0.000355	0.0161988	
0.00036	0.0154048	
0.000365	0.0147706	
0.00037	0.0142243	
0.000375	0.0136191	
0.00038	0.0129087	
0.000385	0.0121149	
0.00039	0.0113038	
0.000395	0.010472	
0.0004	0.00957086	
0.000405	0.00857156	
0.00041	0.00750726	
0.000415	0.00645045	
0.00042	0.00544856	
0.000425	0.00453026	
0.00043	0.00366298	
0.000435	0.00277529	
0.00044	0.00182106	
0.000445	0.000820546	
0.00045	-0.000210693	
0.000455	-0.00107081	
0.00046	-0.00153974	
0.000465	-0.00191871	
0.00047	-0.00245811	
0.000475	-0.00307778	
0.00048	-0.00372106	
0.000485	-0.00439703	
0.00049	-0.00515765	
0.000495	-0.00598563	
0.0005	-0.00681888	
0.000505	-0.00761618	
0.00051	-0.00835207	
0.000515	-0.0090602	
0.00052	-0.00981161	
0.000525	-0.0106035	
0.00053	-0.0113847	
0.000535	-0.0121219	
0.00054	-0.0128427	
0.000545	-0.0135662	
0.00055	-0.0142572	
0.000555	-0.0149416	
0.00056	-0.0156369	
0.000565	-0.0163065	
0.00057	-0.0169274	
0.000575	-0.0175344	
0.00058	-0.0181511	
0.000585	-0.0186974	
0.00059	-0.0191715	
0.000595	-0.0196707	
0.0006	-0.0202103	
0.000605	-0.020751	
0.00061	-0.0212669	
0.000615	-0.021742	
0.00062	-0.0221678	
0.000625	-0.0225409	
0.00063	-0.0228616	
0.000635	-0.0231801	
0.00064	-0.0235773	
0.000645	-0.0240549	
0.00065	-0.0245631	
0.000655	-0.0250674	
0.00066	-0.0254978	
0.000665	-0.0257639	
0.00067	-0.0259092	
0.000675	-0.026063	
0.00068	-0.0262627	
0.000685	-0.0264831	
0.00069	-0.0267069	
0.000695	-0.0269223	
0.0007	-0.0271694	
0.000705	-0.0275209	
0.00071	-0.0279722	
0.000715	-0.0284678	
0.00072	-0.0289692	
0.000725	-0.0294033	
0.00073	-0.0297248	
0.000735	-0.0300045	
0.00074	-0.0302434	
0.000745	-0.0303965	
0.00075	-0.0305334	
0.000755	-0.0304629	
0.00076	-0.0302591	
0.000765	-0.0304523	
0.00077	-0.0308982	
0.000775	-0.0312519	
0.00078	-0.0314806	
0.000785	-0.0315209	
0.00079	-0.0313876	
0.000795	-0.0311462	
0.0008	-0.0308924	
0.000805	-0.03069	
0.00081	-0.0304834	
0.000815	-0.0302365	
0.00082	-0.0299745	
0.000825	-0.0297151	
0.00083	-0.0294695	
0.000835	-0.0292448	
0.00084	-0.0290444	
0.000845	-0.0288695	
0.00085	-0.0287197	
0.000855	-0.0285936	
0.00086	-0.028489	
0.000865	-0.0284036	
0.00087	-0.0282873	
0.000875	-0.0280611	
0.00088	-0.027678	
0.000885	-0.027067	
0.00089	-0.0261921	
0.000895	-0.0250894	
0.0009	-0.0238412	
0.000905	-0.0222708	
0.00091	-0.0199444	
0.000915	-0.0168967	
0.00092	-0.0134701	
0.000925	-0.00981315	
0.00093	-0.00603464	
0.000935	-0.00225963	
0.00094	0.00142958	
0.000945	0.00493527	
0.00095	0.00820168	
0.000955	0.0112984	
0.00096	0.0142795	
0.000965	0.0170907	
0.00097	0.0196571	
0.000975	0.0219882	
0.00098	0.0241964	
0.000985	0.0263618	
0.00099	0.0284917	
0.000995	0.0305924	
0.001	0.0326697	
0.001005	0.0347283	
0.00101	0.0367723	
0.001015	0.0387575	
0.00102	0.04061	
0.001025	0.042335	
0.00103	0.0439419	
0.001035	0.0453949	
0.00104	0.0467252	
0.001045	0.0480068	
0.00105	0.0492907	
0.001055	0.0506105	
0.00106	0.0520341	
0.001065	0.0536015	
0.00107	0.0551895	
0.001075	0.0566684	
0.00108	0.0580056	
0.001085	0.0591859	
0.00109	0.0602071	
0.001095	0.0611225	
0.0011	0.06202	
0.001105	0.0629108	
0.00111	0.063755	
0.001115	0.0645286	
0.00112	0.0652665	
0.001125	0.0660411	
0.00113	0.0668983	
0.001135	0.0678645	
0.00114	0.0688569	
0.001145	0.0697245	
0.00115	0.0704689	
0.001155	0.0711918	
0.00116	0.0719615	
0.001165	0.0727731	
0.00117	0.073574	
0.001175	0.0743299	
0.00118	0.0750205	
0.001185	0.0756353	
0.00119	0.0761235	
0.001195	0.0764576	
0.0012	0.0767218	
0.001205	0.0769751	
0.00121	0.077209	
0.001215	0.0774668	
0.00122	0.077728	
0.001225	0.0779317	
0.00123	0.0781353	
0.001235	0.0783767	
0.00124	0.0786317	
0.001245	0.0788836	
0.00125	0.0791214	
0.001255	0.0794339	
0.00126	0.0798759	
0.001265	0.0802872	
0.00127	0.0805639	
0.001275	0.0807387	
0.00128	0.080838	
0.001285	0.0808828	
0.00129	0.0808421	
0.001295	0.0806994	
0.0013	0.0804962	
0.001305	0.0802151	
0.00131	0.079896	
0.001315	0.0796145	
0.00132	0.0793235	
0.001325	0.0789925	
0.00133	0.0786508	
0.001335	0.0782707	
0.00134	0.0778356	
0.001345	0.0774325	
0.00135	0.077117	
0.001355	0.0768267	
0.00136	0.0764716	
0.001365	0.0759956	
0.00137	0.0754148	
0.001375	0.0748399	
0.00138	0.0743436	
0.001385	0.0739227	
0.00139	0.0735238	
0.001395	0.0730632	
0.0014	0.0725362	
0.001405	0.0719904	
0.00141	0.0714579	
0.001415	0.0709119	
0.00142	0.0702877	
0.001425	0.0695464	
0.00143	0.068668	
0.001435	0.0677406	
0.00144	0.0668723	
0.001445	0.0660366	
0.00145	0.0651668	
0.001455	0.0642681	
0.00146	0.0633928	
0.001465	0.062622	
0.00147	0.062004	
0.001475	0.0613734	
0.00148	0.0605742	
0.001485	0.0596541	
0.00149	0.0586977	
0.001495	0.0577152	
0.0015	0.0567143	
0.001505	0.0557487	
0.00151	0.0548045	
0.001515	0.0538715	
0.00152	0.0529425	
0.001525	0.0519651	
0.00153	0.0509543	
0.001535	0.0499694	
0.00154	0.0490006	
0.001545	0.0479931	
0.00155	0.0469603	
0.001555	0.0459121	
0.00156	0.0446657	
0.001565	0.0431573	
0.00157	0.0416902	
0.001575	0.0404148	
0.00158	0.0392309	
0.001585	0.038116	
0.00159	0.0370517	
0.001595	0.035976	
0.0016	0.0348961	
0.001605	0.0338646	
0.00161	0.0328663	
0.001615	0.0318419	
0.00162	0.0308013	
0.001625	0.0297992	
0.00163	0.0288223	
0.001635	0.0278608	
0.00164	0.0269548	
0.001645	0.0260808	
0.00165	0.0252217	
0.001655	0.0245081	
0.00166	0.0239717	
0.001665	0.0233875	
0.00167	0.0226091	
0.001675	0.021692	
0.00168	0.0207268	
0.001685	0.0197281	
0.00169	0.0187069	
0.001695	0.0177192	
0.0017	0.0167053	
0.001705	0.0155794	
0.00171	0.0144329	
0.001715	0.0133271	
0.00172	0.0122053	
0.001725	0.0110785	
0.00173	0.0100017	
0.001735	0.00900885	
0.00174	0.00811824	
0.001745	0.00728966	
0.00175	0.00649362	
0.001755	0.0057567	
0.00176	0.00504607	
0.001765	0.00448146	
0.00177	0.00418244	
0.001775	0.00388253	
0.00178	0.00335855	
0.001785	0.00266407	
0.00179	0.00189003	
0.001795	0.0010526	
0.0018	0.000117908	
0.001805	-0.000884232	
0.00181	-0.00188345	
0.001815	-0.00283347	
0.00182	-0.00375367	
0.001825	-0.00465821	
0.00183	-0.00550964	
0.001835	-0.00638086	
0.00184	-0.00731898	
0.001845	-0.00825685	
0.00185	-0.00919773	
0.001855	-0.0101436	
0.00186	-0.0110481	
0.001865	-0.01193	
0.00187	-0.0128029	
0.001875	-0.0135809	
0.00188	-0.0142597	
0.001885	-0.014936	
0.00189	-0.0156261	
0.001895	-0.0162928	
0.0019	-0.0169125	
0.001905	-0.0174243	
0.00191	-0.0178408	
0.001915	-0.0182698	
0.00192	-0.0187344	
0.001925	-0.0192479	
0.00193	-0.0198169	
0.001935	-0.0203957	
0.00194	-0.0209535	
0.001945	-0.0215186	
0.00195	-0.0221093	
0.001955	-0.022689	
0.00196	-0.0230914	
0.001965	-0.0231677	
0.00197	-0.023168	
0.001975	-0.0233559	
0.00198	-0.0237061	
0.001985	-0.0241943	
0.00199	-0.0247979	
0.001995	-0.0254015	
0.002	-0.0259766	
0.002005	-0.0266007	
0.00201	-0.0272752	
0.002015	-0.027951	
0.00202	-0.0285957	
0.002025	-0.0291894	
0.00203	-0.0297214	
0.002035	-0.0301876	
0.00204	-0.0306358	
0.002045	-0.0310985	
0.00205	-0.0315014	
0.002055	-0.0317982	
0.00206	-0.0320111	
0.002065	-0.0321585	
0.00207	-0.0322558	
0.002075	-0.032363	
0.00208	-0.0325192	
0.002085	-0.0326528	
0.00209	-0.0327651	
0.002095	-0.0329057	
0.0021	-0.0330582	
0.002105	-0.0332114	
0.00211	-0.0333102	
0.002115	-0.033321	
0.00212	-0.0332733	
0.002125	-0.0331416	
0.00213	-0.0328659	
0.002135	-0.032413	
0.00214	-0.0317697	
0.002145	-0.0309838	
0.00215	-0.0300459	
0.002155	-0.0288621	
0.00216	-0.027477	
0.002165	-0.0259772	
0.00217	-0.0244251	
0.002175	-0.0228645	
0.00218	-0.0212294	
0.002185	-0.01948	
0.00219	-0.0176428	
0.002195	-0.0157396	
0.0022	-0.0137879	
0.002205	-0.0118489	
0.00221	-0.01001	
0.002215	-0.00827651	
0.00222	-0.00659951	
0.002225	-0.00446862	
0.00223	-0.00109346	
0.002235	0.00346533	
0.00224	0.00858894	
0.002245	0.0138426	
0.00225	0.0189811	
0.002255	0.0238957	
0.00226	0.0285252	
0.002265	0.0328905	
0.00227	0.0369701	
0.002275	0.0406209	
0.00228	0.0437212	
0.002285	0.0463594	
0.00229	0.0487583	
0.002295	0.0509336	
0.0023	0.0528109	
0.002305	0.0544505	
0.00231	0.0559509	
0.002315	0.0573836	
0.00232	0.058799	
0.002325	0.0601836	
0.00233	0.0614824	
0.002335	0.0627107	
0.00234	0.0639295	
0.002345	0.065132	
0.00235	0.0662668	
0.002355	0.0673508	
0.00236	0.068255	
0.002365	0.0688553	
0.00237	0.0694645	
0.002375	0.0702884	
0.00238	0.0712149	
0.002385	0.0722603	
0.00239	0.0734298	
0.002395	0.0746257	
0.0024	0.07583	
0.002405	0.0770305	
0.00241	0.0782191	
0.002415	0.0794389	
0.00242	0.0806689	
0.002425	0.0818476	
0.00243	0.0829367	
0.002435	0.0839627	
0.00244	0.0849461	
0.002445	0.085855	
0.00245	0.0867192	
0.002455	0.0875606	
0.00246	0.0883948	
0.002465	0.0892323	
0.00247	0.0899372	
0.002475	0.0904739	
0.00248	0.0909694	
0.002485	0.0914142	
0.00249	0.0918046	
0.002495	0.0922357	
0.0025	0.0927208	
0.002505	0.0932186	
0.00251	0.0937012	
0.002515	0.0941509	
0.00252	0.0946053	
0.002525	0.0950887	
0.00253	0.0955684	
0.002535	0.0960705	
0.00254	0.0966113	
0.002545	0.0971518	
0.00255	0.0976667	
0.002555	0.0981403	
0.00256	0.0985643	
0.002565	0.098888	
0.00257	0.0989877	
0.002575	0.0988874	
0.00258	0.098755	
0.002585	0.0986078	
0.00259	0.0984102	
0.002595	0.0981887	
0.0026	0.097962	
0.002605	0.0977901	
0.00261	0.0977575	
0.002615	0.0978183	
0.00262	0.0978427	
0.002625	0.0977945	
0.00263	0.0977006	
0.002635	0.0975811	
0.00264	0.0974504	
0.002645	0.0973184	
0.00265	0.0971443	
0.002655	0.0969031	
0.00266	0.0966291	
0.002665	0.0962039	
0.00267	0.0955564	
0.002675	0.094888	
0.00268	0.0943326	
0.002685	0.093878	
0.00269	0.0935112	
0.002695	0.0932198	
0.0027	0.0929919	
0.002705	0.092769	
0.00271	0.0925124	
0.002715	0.0922458	
0.00272	0.0919377	
0.002725	0.0915692	
0.00273	0.0911308	
0.002735	0.0906195	
0.00274	0.0901319	
0.002745	0.0896829	
0.00275	0.0891856	
0.002755	0.0886324	
0.00276	0.0880685	
0.002765	0.0875243	
0.00277	0.0869711	
0.002775	0.0863908	
0.00278	0.0857725	
0.002785	0.0850157	
0.00279	0.0841083	
0.002795	0.0830971	
0.0028	0.0820177	
0.002805	0.0809443	
0.00281	0.0798782	
0.002815	0.0787723	
0.00282	0.0776448	
0.002825	0.0765564	
0.00283	0.0754979	
0.002835	0.0744614	
0.00284	0.0734411	
0.002845	0.072432	
0.00285	0.0714782	
0.002855	0.0705584	
0.00286	0.0696093	
0.002865	0.0685909	
0.00287	0.0674798	
0.002875	0.0663126	
0.00288	0.0651637	
0.002885	0.0640335	
0.00289	0.0629217	
0.002895	0.0618746	
0.0029	0.0609196	
0.002905	0.0600231	
0.00291	0.0591124	
0.002915	0.0581403	
0.00292	0.0570787	
0.002925	0.0559608	
0.00293	0.054811	
0.002935	0.0535996	
0.00294	0.0523573	
0.002945	0.0511533	
0.00295	0.0499841	
0.002955	0.048798	
0.00296	0.0476093	
0.002965	0.0464752	
0.00297	0.0454307	
0.002975	0.0444471	
0.00298	0.0434551	
0.002985	0.0424095	
0.00299	0.0412828	
0.002995	0.0401085	
0.003	0.0389108	
0.003005	0.0376593	
0.00301	0.0363839	
0.003015	0.035153	
0.00302	0.0340098	
0.003025	0.0329309	
0.00303	0.0318504	
0.003035	0.0307724	
0.00304	0.0296994	
0.003045	0.0285855	
0.00305	0.0274497	
0.003055	0.0263057	
0.00306	0.0251153	
0.003065	0.0239031	
0.00307	0.0226863	
0.003075	0.0214765	
0.00308	0.0203286	
0.003085	0.0192757	
0.00309	0.0183352	
0.003095	0.0174659	
0.0031	0.0165895	
0.003105	0.0156549	
0.00311	0.0146784	
0.003115	0.0137207	
0.00312	0.0128205	
0.003125	0.0119533	
0.00313	0.0111014	
0.003135	0.0102999	
0.00314	0.00952189	
0.003145	0.00874871	
0.00315	0.00796773	
0.003155	0.00717101	
0.00316	0.00644914	
0.003165	0.00581075	
0.00317	0.005115	
0.003175	0.00422419	
0.00318	0.00315183	
0.003185	0.00205803	
0.00319	0.00104936	
0.003195	9.69903E-5	
0.0032	-0.000868284	
0.003205	-0.00184395	
0.00321	-0.00278031	
0.003215	-0.00364648	
0.00322	-0.00442539	
0.003225	-0.00510994	
0.00323	-0.00574742	
0.003235	-0.00641878	
0.00324	-0.00712828	
0.003245	-0.00782935	
0.00325	-0.00849171	
0.003255	-0.00914476	
0.00326	-0.00985584	
0.003265	-0.0106191	
0.00327	-0.0113807	
0.003275	-0.0121051	
0.00328	-0.0128183	
0.003285	-0.0135379	
0.00329	-0.0142277	
0.003295	-0.0149127	
0.0033	-0.0155622	
0.003305	-0.0161101	
0.00331	-0.0166125	
0.003315	-0.0171087	
0.00332	-0.0175774	
0.003325	-0.0180058	
0.00333	-0.0184348	
0.003335	-0.0189391	
0.00334	-0.0195167	
0.003345	-0.0201153	
0.00335	-0.0206994	
0.003355	-0.0212463	
0.00336	-0.0217429	
0.003365	-0.0222303	
0.00337	-0.0227361	
0.003375	-0.0231827	
0.00338	-0.0235215	
0.003385	-0.0237732	
0.00339	-0.0239556	
0.003395	-0.0241312	
0.0034	-0.0243891	
0.003405	-0.0247366	
0.00341	-0.0251742	
0.003415	-0.0256982	
0.00342	-0.0262067	
0.003425	-0.0266334	
0.00343	-0.0269861	
0.003435	-0.0272733	
0.00344	-0.0275036	
0.003445	-0.0277332	
0.00345	-0.0279989	
0.003455	-0.0282283	
0.00346	-0.0283754	
0.003465	-0.0285089	
0.00347	-0.028722	
0.003475	-0.0290253	
0.00348	-0.0293259	
0.003485	-0.0295632	
0.00349	-0.029795	
0.003495	-0.0300121	
0.0035	-0.0301144	
0.003505	-0.0301359	
0.00351	-0.0301509	
0.003515	-0.0301132	
0.00352	-0.029995	
0.003525	-0.029877	
0.00353	-0.0298121	
0.003535	-0.0297378	
0.00354	-0.0296132	
0.003545	-0.0294615	
0.00355	-0.0292989	
0.003555	-0.029137	
0.00356	-0.0290782	
0.003565	-0.0291852	
0.00357	-0.0292539	
0.003575	-0.0290088	
0.00358	-0.0284735	
0.003585	-0.0279146	
0.00359	-0.0274142	
0.003595	-0.0269285	
0.0036	-0.026523	
0.003605	-0.026237	
0.00361	-0.0259484	
0.003615	-0.025529	
0.00362	-0.0249958	
0.003625	-0.0240799	
0.00363	-0.0223371	
0.003635	-0.0198938	
0.00364	-0.0171042	
0.003645	-0.0140757	
0.00365	-0.0108902	
0.003655	-0.00765682	
0.00366	-0.00444974	
0.003665	-0.00131661	
0.00367	0.00171465	
0.003675	0.00467796	
0.00368	0.00759893	
0.003685	0.0103538	
0.00369	0.0128689	
0.003695	0.0152496	
0.0037	0.0175715	
0.003705	0.0197926	
0.00371	0.0218895	
0.003715	0.023948	
0.00372	0.0260265	
0.003725	0.0280674	
0.00373	0.0299869	
0.003735	0.0317832	
0.00374	0.0335083	
0.003745	0.0351999	
0.00375	0.0368846	
0.003755	0.0385801	
0.00376	0.0402975	
0.003765	0.0419957	
0.00377	0.043601	
0.003775	0.0451166	
0.00378	0.0465964	
0.003785	0.0480302	
0.00379	0.0494133	
0.003795	0.0507928	
0.0038	0.052152	
0.003805	0.0534337	
0.00381	0.0546036	
0.003815	0.0556444	
0.00382	0.0565985	
0.003825	0.0575453	
0.00383	0.0584901	
0.003835	0.0593889	
0.00384	0.0602623	
0.003845	0.0611253	
0.00385	0.0619405	
0.003855	0.0627332	
0.00386	0.0635687	
0.003865	0.0645355	
0.00387	0.0655906	
0.003875	0.0665591	
0.00388	0.0674245	
0.003885	0.0682287	
0.00389	0.0689544	
0.003895	0.069594	
0.0039	0.0701467	
0.003905	0.0706158	
0.00391	0.0710078	
0.003915	0.0713777	
0.00392	0.0717633	
0.003925	0.0721409	
0.00393	0.0725429	
0.003935	0.0729896	
0.00394	0.0734445	
0.003945	0.0738834	
0.00395	0.074291	
0.003955	0.0746586	
0.00396	0.0749349	
0.003965	0.0750905	
0.00397	0.0752067	
0.003975	0.0752437	
0.00398	0.0751319	
0.003985	0.0750222	
0.00399	0.0750142	
0.003995	0.0750736	
0.004	0.0751271	
0.004005	0.0751267	
0.00401	0.0750907	
0.004015	0.0749854	
0.00402	0.0748395	
0.004025	0.0747686	
0.00403	0.0747507	
0.004035	0.0746734	
0.00404	0.0745132	
0.004045	0.0743057	
0.00405	0.0740295	
0.004055	0.0736734	
0.00406	0.073329	
0.004065	0.0730087	
0.00407	0.0726243	
0.004075	0.0721683	
0.00408	0.0716866	
0.004085	0.0712108	
0.00409	0.0707614	
0.004095	0.0703507	
0.0041	0.0699373	
0.004105	0.0694466	
0.00411	0.0688332	
0.004115	0.0681203	
0.00412	0.067423	
0.004125	0.0668166	
0.00413	0.0662988	
0.004135	0.0658163	
0.00414	0.0652848	
0.004145	0.0646987	
0.00415	0.0640568	
0.004155	0.0633133	
0.00416	0.0624905	
0.004165	0.0616543	
0.00417	0.0608013	
0.004175	0.0598825	
0.00418	0.0589162	
0.004185	0.0579644	
0.00419	0.0570195	
0.004195	0.0560764	
0.0042	0.0552265	
0.004205	0.0544784	
0.00421	0.0536902	
0.004215	0.0528176	
0.00422	0.0519308	
0.004225	0.051029	
0.00423	0.0501124	
0.004235	0.0491818	
0.00424	0.048191	
0.004245	0.0471599	
0.00425	0.0461033	
0.004255	0.0450324	
0.00426	0.0440028	
0.004265	0.0428113	
0.00427	0.0412843	
0.004275	0.0397509	
0.00428	0.0385235	
0.004285	0.0375558	
0.00429	0.0366626	
0.004295	0.0357182	
0.0043	0.0347371	
0.004305	0.0337782	
0.00431	0.0328318	
0.004315	0.0318433	
0.00432	0.0308263	
0.004325	0.0298386	
0.00433	0.0288693	
0.004335	0.0278631	
0.00434	0.0268324	
0.004345	0.0258345	
0.00435	0.0249053	
0.004355	0.0240179	
0.00436	0.0231048	
0.004365	0.0221706	
0.00437	0.021219	
0.004375	0.020301	
0.00438	0.0194486	
0.004385	0.0185371	
0.00439	0.0175823	
0.004395	0.016644	
0.0044	0.0156659	
0.004405	0.0146603	
0.00441	0.0136842	
0.004415	0.0127261	
0.00442	0.0117302	
0.004425	0.0107089	
0.00443	0.00971908	
0.004435	0.00879693	
0.00444	0.00791544	
0.004445	0.00705493	
0.00445	0.00624895	
0.004455	0.00542197	
0.00446	0.00447765	
0.004465	0.0034531	
0.00447	0.0024241	
0.004475	0.00144084	
0.00448	0.000486715	
0.004485	-0.000450617	
0.00449	-0.001285	
0.004495	-0.00201205	
0.0045	-0.00272901	
0.004505	-0.00350047	
0.00451	-0.00436645	
0.004515	-0.00530133	
0.00452	-0.00623743	
0.004525	-0.00717758	
0.00453	-0.00812347	
0.004535	-0.00902841	
0.00454	-0.00991109	
0.004545	-0.0107849	
0.00455	-0.0116115	
0.004555	-0.0123678	
0.00456	-0.0130897	
0.004565	-0.0138021	
0.00457	-0.0144747	
0.004575	-0.0151367	
0.00458	-0.015808	
0.004585	-0.0164536	
0.00459	-0.0170994	
0.004595	-0.0177621	
0.0046	-0.0183572	
0.004605	-0.0188321	
0.00461	-0.0192052	
0.004615	-0.019541	
0.00462	-0.0199316	
0.004625	-0.0203872	
0.00463	-0.0208642	
0.004635	-0.0213327	
0.00464	-0.021821	
0.004645	-0.0223943	
0.00465	-0.0230442	
0.004655	-0.0237137	
0.00466	-0.0243645	
0.004665	-0.0250673	
0.00467	-0.0258662	
0.004675	-0.0266431	
0.00468	-0.0273688	
0.004685	-0.0280739	
0.00469	-0.0286846	
0.004695	-0.0291566	
0.0047	-0.0295624	
0.004705	-0.0299528	
0.00471	-0.0303147	
0.004715	-0.0306406	
0.00472	-0.0309749	
0.004725	-0.0313465	
0.00473	-0.0316776	
0.004735	-0.0319663	
0.00474	-0.0323084	
0.004745	-0.0326696	
0.00475	-0.0329788	
0.004755	-0.033239	
0.00476	-0.0334547	
0.004765	-0.0336783	
0.00477	-0.0339441	
0.004775	-0.0342727	
0.00478	-0.0346746	
0.004785	-0.0350585	
0.00479	-0.0353646	
0.004795	-0.0356051	
0.0048	-0.0357909	
0.004805	-0.0359318	
0.00481	-0.0360365	
0.004815	-0.0361124	
0.00482	-0.0361657	
0.004825	-0.0362015	
0.00483	-0.0362242	
0.004835	-0.0362371	
0.00484	-0.0362429	
0.004845	-0.0362438	
0.00485	-0.0362415	
0.004855	-0.036237	
0.00486	-0.0362315	
0.004865	-0.0362254	
0.00487	-0.0362193	
0.004875	-0.0362135	
0.00488	-0.0362081	
0.004885	-0.0362032	
0.00489	-0.0361514	
0.004895	-0.0360236	
0.0049	-0.0358993	
0.004905	-0.035783	
0.00491	-0.0355826	
0.004915	-0.0353362	
0.00492	-0.0351186	
0.004925	-0.0348827	
0.00493	-0.0345985	
0.004935	-0.0342482	
0.00494	-0.033776	
0.004945	-0.0331505	
0.00495	-0.0323586	
0.004955	-0.0313517	
0.00496	-0.0301081	
0.004965	-0.0287198	
0.00497	-0.0272066	
0.004975	-0.0252548	
0.00498	-0.0224407	
0.004985	-0.0187632	
0.00499	-0.0145479	
0.004995	-0.0100822	
0.005	-0.00561518	
0.005005	-0.00135849	
0.00501	0.00265322	
0.005015	0.00645629	
0.00502	0.010037	
0.005025	0.0133967	
0.00503	0.016547	
0.005035	0.0195052	
