Time - Plot 0	Amplitude - Plot 0	
0	-0.00506766	
5E-6	-0.00579256	
1E-5	-0.00656696	
1.5E-5	-0.00733739	
2E-5	-0.00806874	
2.5E-5	-0.00878728	
3E-5	-0.00955846	
3.5E-5	-0.0103754	
4E-5	-0.0111839	
4.5E-5	-0.0119485	
5E-5	-0.0126957	
5.5E-5	-0.0134435	
6E-5	-0.0141088	
6.5E-5	-0.0147357	
7E-5	-0.0154504	
7.5E-5	-0.0161891	
8E-5	-0.0169087	
8.5E-5	-0.0176767	
9E-5	-0.0184879	
9.5E-5	-0.0192891	
0.0001	-0.020046	
0.000105	-0.0207852	
0.00011	-0.0215255	
0.000115	-0.0222314	
0.00012	-0.0228812	
0.000125	-0.0235109	
0.00013	-0.0242402	
0.000135	-0.0250481	
0.00014	-0.0257746	
0.000145	-0.026413	
0.00015	-0.0270583	
0.000155	-0.0277251	
0.00016	-0.0283746	
0.000165	-0.0289343	
0.00017	-0.0293609	
0.000175	-0.0296796	
0.00018	-0.0298644	
0.000185	-0.0299523	
0.00019	-0.0301147	
0.000195	-0.0304136	
0.0002	-0.0307409	
0.000205	-0.0310714	
0.00021	-0.0314834	
0.000215	-0.0319297	
0.00022	-0.03233	
0.000225	-0.032681	
0.00023	-0.0329829	
0.000235	-0.0332856	
0.00024	-0.0336222	
0.000245	-0.0339651	
0.00025	-0.0342961	
0.000255	-0.0346034	
0.00026	-0.0348806	
0.000265	-0.035125	
0.00027	-0.035336	
0.000275	-0.0355151	
0.00028	-0.0356647	
0.000285	-0.0357877	
0.00029	-0.0358874	
0.000295	-0.0359671	
0.0003	-0.0360297	
0.000305	-0.0360781	
0.00031	-0.0361625	
0.000315	-0.036314	
0.00032	-0.0364552	
0.000325	-0.0365353	
0.00033	-0.0365713	
0.000335	-0.0365766	
0.00034	-0.0365614	
0.000345	-0.0365334	
0.00035	-0.0364507	
0.000355	-0.0362883	
0.00036	-0.0361287	
0.000365	-0.0360259	
0.00037	-0.0359179	
0.000375	-0.0357165	
0.00038	-0.0354631	
0.000385	-0.0352825	
0.00039	-0.0351583	
0.000395	-0.0350297	
0.0004	-0.0349043	
0.000405	-0.034787	
0.00041	-0.0346804	
0.000415	-0.0345386	
0.00042	-0.0343325	
0.000425	-0.034094	
0.00043	-0.0337977	
0.000435	-0.0334299	
0.00044	-0.0330323	
0.000445	-0.0326338	
0.00045	-0.0322537	
0.000455	-0.0319036	
0.00046	-0.0315898	
0.000465	-0.0313149	
0.00047	-0.031031	
0.000475	-0.0306596	
0.00048	-0.030248	
0.000485	-0.0298295	
0.00049	-0.029331	
0.000495	-0.0287559	
0.0005	-0.0281575	
0.000505	-0.0275244	
0.00051	-0.0267559	
0.000515	-0.0257443	
0.00052	-0.0244776	
0.000525	-0.0230075	
0.00053	-0.0213304	
0.000535	-0.0194058	
0.00054	-0.0172665	
0.000545	-0.0148967	
0.00055	-0.0122018	
0.000555	-0.00918236	
0.00056	-0.00590154	
0.000565	-0.00250853	
0.00057	0.000845528	
0.000575	0.00411032	
0.00058	0.00725692	
0.000585	0.0102718	
0.00059	0.0131524	
0.000595	0.0159032	
0.0006	0.0184858	
0.000605	0.020883	
0.00061	0.0231396	
0.000615	0.0252443	
0.00062	0.0271493	
0.000625	0.0288801	
0.00063	0.0305091	
0.000635	0.0320417	
0.00064	0.0334856	
0.000645	0.0348978	
0.00065	0.0363175	
0.000655	0.03777	
0.00066	0.0392705	
0.000665	0.0408267	
0.00067	0.0423936	
0.000675	0.043941	
0.00068	0.0454499	
0.000685	0.046862	
0.00069	0.0481435	
0.000695	0.0492783	
0.0007	0.0502626	
0.000705	0.0511013	
0.00071	0.0518993	
0.000715	0.0527753	
0.00072	0.0537088	
0.000725	0.0546362	
0.00073	0.0555156	
0.000735	0.0563218	
0.00074	0.0570416	
0.000745	0.0577179	
0.00075	0.0584286	
0.000755	0.0591759	
0.00076	0.0599121	
0.000765	0.060606	
0.00077	0.0611442	
0.000775	0.0616494	
0.00078	0.062394	
0.000785	0.0631663	
0.00079	0.0637777	
0.000795	0.0643016	
0.0008	0.0647431	
0.000805	0.0651093	
0.00081	0.065361	
0.000815	0.0654778	
0.00082	0.0655477	
0.000825	0.0656309	
0.00083	0.0657188	
0.000835	0.0658534	
0.00084	0.0660122	
0.000845	0.0661321	
0.00085	0.0662681	
0.000855	0.0664083	
0.00086	0.0664971	
0.000865	0.0665954	
0.00087	0.0666952	
0.000875	0.0667439	
0.00088	0.0667565	
0.000885	0.0666971	
0.00089	0.0665457	
0.000895	0.0663406	
0.0009	0.0661099	
0.000905	0.0658732	
0.00091	0.0656437	
0.000915	0.0653824	
0.00092	0.0650648	
0.000925	0.0647252	
0.00093	0.0643396	
0.000935	0.0638944	
0.00094	0.0634309	
0.000945	0.0629772	
0.00095	0.0625041	
0.000955	0.0619453	
0.00096	0.061309	
0.000965	0.0606516	
0.00097	0.059964	
0.000975	0.0591938	
0.00098	0.0584056	
0.000985	0.057833	
0.00099	0.0575247	
0.000995	0.0572151	
0.001	0.0567766	
0.001005	0.056274	
0.00101	0.0557527	
0.001015	0.055244	
0.00102	0.0547199	
0.001025	0.0541154	
0.00103	0.0533915	
0.001035	0.052528	
0.00104	0.0515182	
0.001045	0.0504122	
0.00105	0.0493427	
0.001055	0.0483477	
0.00106	0.0473538	
0.001065	0.0463602	
0.00107	0.0454138	
0.001075	0.0446383	
0.00108	0.0442498	
0.001085	0.044135	
0.00109	0.0438732	
0.001095	0.0433367	
0.0011	0.042597	
0.001105	0.0417108	
0.00111	0.0407223	
0.001115	0.039618	
0.00112	0.0384897	
0.001125	0.0373989	
0.00113	0.0362893	
0.001135	0.0351723	
0.00114	0.0341032	
0.001145	0.0330688	
0.00115	0.0320111	
0.001155	0.0309405	
0.00116	0.029912	
0.001165	0.0289124	
0.00117	0.0278841	
0.001175	0.0268855	
0.00118	0.0260012	
0.001185	0.0251391	
0.00119	0.0242373	
0.001195	0.0233044	
0.0012	0.0223001	
0.001205	0.0212487	
0.00121	0.0202159	
0.001215	0.0192443	
0.00122	0.0183114	
0.001225	0.0174006	
0.00123	0.0165476	
0.001235	0.0157253	
0.00124	0.0148672	
0.001245	0.0139785	
0.00125	0.0131117	
0.001255	0.0123003	
0.00126	0.0115163	
0.001265	0.0106923	
0.00127	0.00988103	
0.001275	0.00921149	
0.00128	0.0086671	
0.001285	0.00804083	
0.00129	0.00724759	
0.001295	0.00642932	
0.0013	0.00563324	
0.001305	0.00484191	
0.00131	0.00409114	
0.001315	0.00335509	
0.00132	0.00256848	
0.001325	0.00173822	
0.00133	0.000918431	
0.001335	0.00014433	
0.00134	-0.000563037	
0.001345	-0.00124048	
0.00135	-0.00196123	
0.001355	-0.00272396	
0.00136	-0.00352585	
0.001365	-0.00436316	
0.00137	-0.00518422	
0.001375	-0.00600327	
0.00138	-0.00673471	
0.001385	-0.0072312	
0.00139	-0.00764435	
0.001395	-0.00817316	
0.0014	-0.00875322	
0.001405	-0.00933963	
0.00141	-0.00999756	
0.001415	-0.0107191	
0.00142	-0.0114484	
0.001425	-0.0121958	
0.00143	-0.013015	
0.001435	-0.0138903	
0.00144	-0.0147611	
0.001445	-0.0155878	
0.00145	-0.0163463	
0.001455	-0.017024	
0.00146	-0.0176164	
0.001465	-0.018172	
0.00147	-0.0187721	
0.001475	-0.0194208	
0.00148	-0.0202609	
0.001485	-0.0213777	
0.00149	-0.0224339	
0.001495	-0.0232101	
0.0015	-0.0238124	
0.001505	-0.0243193	
0.00151	-0.0247391	
0.001515	-0.0250817	
0.00152	-0.0253573	
0.001525	-0.025623	
0.00153	-0.0259174	
0.001535	-0.0262166	
0.00154	-0.0265049	
0.001545	-0.0267723	
0.00155	-0.0270609	
0.001555	-0.0273498	
0.00156	-0.0275302	
0.001565	-0.0276304	
0.00157	-0.0277207	
0.001575	-0.0278	
0.00158	-0.0278685	
0.001585	-0.027974	
0.00159	-0.0281941	
0.001595	-0.0285268	
0.0016	-0.0288705	
0.001605	-0.0291102	
0.00161	-0.0292699	
0.001615	-0.0294168	
0.00162	-0.0295009	
0.001625	-0.0295395	
0.00163	-0.0296415	
0.001635	-0.0298278	
0.00164	-0.030061	
0.001645	-0.0303141	
0.00165	-0.0305683	
0.001655	-0.0308113	
0.00166	-0.0310353	
0.001665	-0.0312362	
0.00167	-0.0314124	
0.001675	-0.0315165	
0.00168	-0.0314254	
0.001685	-0.0310674	
0.00169	-0.0304553	
0.001695	-0.0296094	
0.0017	-0.028602	
0.001705	-0.0274881	
0.00171	-0.0262616	
0.001715	-0.0249239	
0.00172	-0.023481	
0.001725	-0.0219419	
0.00173	-0.0203171	
0.001735	-0.0186176	
0.00174	-0.0168542	
0.001745	-0.0150845	
0.00175	-0.0133468	
0.001755	-0.0115697	
0.00176	-0.00970824	
0.001765	-0.00783156	
0.00177	-0.00598609	
0.001775	-0.00415341	
0.00178	-0.00213065	
0.001785	0.000206998	
0.00179	0.00249908	
0.001795	0.00451011	
0.0018	0.00685867	
0.001805	0.0103645	
0.00181	0.0148953	
0.001815	0.0198401	
0.00182	0.0248716	
0.001825	0.0298173	
0.00183	0.0345676	
0.001835	0.0390594	
0.00184	0.0432159	
0.001845	0.0469547	
0.00185	0.0502888	
0.001855	0.0532935	
0.00186	0.0560338	
0.001865	0.0585654	
0.00187	0.0608872	
0.001875	0.0629607	
0.00188	0.0649151	
0.001885	0.0668887	
0.00189	0.0687341	
0.001895	0.0703601	
0.0019	0.071812	
0.001905	0.0730331	
0.00191	0.0740441	
0.001915	0.0750114	
0.00192	0.0760468	
0.001925	0.0771255	
0.00193	0.078182	
0.001935	0.0792212	
0.00194	0.080295	
0.001945	0.0813408	
0.00195	0.0822711	
0.001955	0.0831765	
0.00196	0.0841175	
0.001965	0.0850376	
0.00197	0.0859479	
0.001975	0.0868562	
0.00198	0.0877678	
0.001985	0.0886859	
0.00199	0.089565	
0.001995	0.0903767	
0.002	0.0911056	
0.002005	0.091793	
0.00201	0.0925156	
0.002015	0.0933222	
0.00202	0.0941937	
0.002025	0.0950667	
0.00203	0.0958994	
0.002035	0.0966661	
0.00204	0.0973531	
0.002045	0.0980026	
0.00205	0.0986917	
0.002055	0.0994218	
0.00206	0.100097	
0.002065	0.100656	
0.00207	0.10116	
0.002075	0.101652	
0.00208	0.102112	
0.002085	0.102481	
0.00209	0.102822	
0.002095	0.103269	
0.0021	0.103718	
0.002105	0.104053	
0.00211	0.104343	
0.002115	0.104638	
0.00212	0.104922	
0.002125	0.105233	
0.00213	0.105547	
0.002135	0.105753	
0.00214	0.105878	
0.002145	0.105992	
0.00215	0.106045	
0.002155	0.106008	
0.00216	0.105961	
0.002165	0.105957	
0.00217	0.105934	
0.002175	0.105852	
0.00218	0.105735	
0.002185	0.1056	
0.00219	0.105461	
0.002195	0.105324	
0.0022	0.105197	
0.002205	0.105128	
0.00221	0.105149	
0.002215	0.105181	
0.00222	0.105171	
0.002225	0.105086	
0.00223	0.104861	
0.002235	0.104506	
0.00224	0.104083	
0.002245	0.103635	
0.00225	0.103191	
0.002255	0.102771	
0.00226	0.102339	
0.002265	0.101825	
0.00227	0.101234	
0.002275	0.100619	
0.00228	0.100161	
0.002285	0.099922	
0.00229	0.099602	
0.002295	0.0990534	
0.0023	0.0983799	
0.002305	0.0976559	
0.00231	0.0969329	
0.002315	0.0962448	
0.00232	0.0956122	
0.002325	0.0950461	
0.00233	0.0944555	
0.002335	0.0937342	
0.00234	0.0929608	
0.002345	0.0921896	
0.00235	0.0913613	
0.002355	0.0904869	
0.00236	0.089576	
0.002365	0.0886366	
0.00237	0.0877228	
0.002375	0.0868215	
0.00238	0.0858761	
0.002385	0.0848513	
0.00239	0.083775	
0.002395	0.0827157	
0.0024	0.0816701	
0.002405	0.080588	
0.00241	0.0794854	
0.002415	0.078374	
0.00242	0.0772617	
0.002425	0.0762015	
0.00243	0.0751308	
0.002435	0.0739611	
0.00244	0.0727339	
0.002445	0.0715269	
0.00245	0.0703903	
0.002455	0.0693063	
0.00246	0.0682132	
0.002465	0.0670707	
0.00247	0.0658071	
0.002475	0.0644284	
0.00248	0.0630864	
0.002485	0.0618798	
0.00249	0.0607719	
0.002495	0.0596864	
0.0025	0.0585719	
0.002505	0.057396	
0.00251	0.0561877	
0.002515	0.0550152	
0.00252	0.0539217	
0.002525	0.0528845	
0.00253	0.0518384	
0.002535	0.0507884	
0.00254	0.0497379	
0.002545	0.0486893	
0.00255	0.0476915	
0.002555	0.0467268	
0.00256	0.0456871	
0.002565	0.0444568	
0.00257	0.0430641	
0.002575	0.0416776	
0.00258	0.0404084	
0.002585	0.0393717	
0.00259	0.0386322	
0.002595	0.0379336	
0.0026	0.0371049	
0.002605	0.0362296	
0.00261	0.0352699	
0.002615	0.0341098	
0.00262	0.0327298	
0.002625	0.0312226	
0.00263	0.0297027	
0.002635	0.0282465	
0.00264	0.026901	
0.002645	0.0256447	
0.00265	0.0244116	
0.002655	0.0232044	
0.00266	0.0220716	
0.002665	0.0210413	
0.00267	0.0200798	
0.002675	0.019114	
0.00268	0.0181912	
0.002685	0.0173878	
0.00269	0.0166062	
0.002695	0.0156856	
0.0027	0.014622	
0.002705	0.0135143	
0.00271	0.0123349	
0.002715	0.0110689	
0.00272	0.00985331	
0.002725	0.00877589	
0.00273	0.00779303	
0.002735	0.00682393	
0.00274	0.0058622	
0.002745	0.00490329	
0.00275	0.00389652	
0.002755	0.00285827	
0.00276	0.00184838	
0.002765	0.000904951	
0.00277	4.99623E-5	
0.002775	-0.000753809	
0.00278	-0.00158086	
0.002785	-0.00243169	
0.00279	-0.00325794	
0.002795	-0.00407646	
0.0028	-0.00494622	
0.002805	-0.00585617	
0.00281	-0.00674958	
0.002815	-0.00758983	
0.00282	-0.00840282	
0.002825	-0.00925446	
0.00283	-0.0101388	
0.002835	-0.011003	
0.00284	-0.0118129	
0.002845	-0.0125487	
0.00285	-0.0132485	
0.002855	-0.0139389	
0.00286	-0.0145904	
0.002865	-0.0152331	
0.00287	-0.0158871	
0.002875	-0.0165176	
0.00288	-0.0171027	
0.002885	-0.0176303	
0.00289	-0.0181426	
0.002895	-0.0187155	
0.0029	-0.019349	
0.002905	-0.0200398	
0.00291	-0.0207834	
0.002915	-0.0214791	
0.00292	-0.0221102	
0.002925	-0.0227165	
0.00293	-0.0232778	
0.002935	-0.0237828	
0.00294	-0.0242743	
0.002945	-0.0248288	
0.00295	-0.0253986	
0.002955	-0.0259515	
0.00296	-0.0265147	
0.002965	-0.027058	
0.00297	-0.02761	
0.002975	-0.0281893	
0.00298	-0.028759	
0.002985	-0.0291054	
0.00299	-0.0290981	
0.002995	-0.0290479	
0.003	-0.0291146	
0.003005	-0.0292075	
0.00301	-0.029361	
0.003015	-0.0295945	
0.00302	-0.0298699	
0.003025	-0.0301123	
0.00303	-0.030274	
0.003035	-0.0304698	
0.00304	-0.030774	
0.003045	-0.0311352	
0.00305	-0.0315169	
0.003055	-0.0318466	
0.00306	-0.0321264	
0.003065	-0.0324551	
0.00307	-0.032848	
0.003075	-0.0332648	
0.00308	-0.0336775	
0.003085	-0.0340204	
0.00309	-0.0342537	
0.003095	-0.0345462	
0.0031	-0.0350065	
0.003105	-0.0354606	
0.00311	-0.0357466	
0.003115	-0.0358606	
0.00312	-0.0359034	
0.003125	-0.0359447	
0.00313	-0.0359831	
0.003135	-0.0360178	
0.00314	-0.0360484	
0.003145	-0.0360273	
0.00315	-0.0358781	
0.003155	-0.0356038	
0.00316	-0.0352602	
0.003165	-0.034887	
0.00317	-0.0345595	
0.003175	-0.0343252	
0.00318	-0.0341159	
0.003185	-0.0338854	
0.00319	-0.0336519	
0.003195	-0.0333323	
0.0032	-0.0328285	
0.003205	-0.0321796	
0.00321	-0.0313705	
0.003215	-0.0303991	
0.00322	-0.0293665	
0.003225	-0.028295	
0.00323	-0.0268207	
0.003235	-0.0244849	
0.00324	-0.0214065	
0.003245	-0.0178889	
0.00325	-0.0141531	
0.003255	-0.0104501	
0.00326	-0.0068488	
0.003265	-0.00329472	
0.00327	0.000155173	
0.003275	0.00342074	
0.00328	0.00650539	
0.003285	0.00941993	
0.00329	0.0123697	
0.003295	0.0154883	
0.0033	0.0185233	
0.003305	0.0212645	
0.00331	0.0236823	
0.003315	0.0258201	
0.00332	0.0277672	
0.003325	0.0296391	
0.00333	0.0315155	
0.003335	0.0333536	
0.00334	0.0351271	
0.003345	0.0368692	
0.00335	0.0385557	
0.003355	0.0401258	
0.00336	0.0415924	
0.003365	0.0430165	
0.00337	0.0444402	
0.003375	0.045939	
0.00338	0.0475115	
0.003385	0.0490106	
0.00339	0.0503429	
0.003395	0.0515498	
0.0034	0.052712	
0.003405	0.0537896	
0.00341	0.0547131	
0.003415	0.0555864	
0.00342	0.0565277	
0.003425	0.0575646	
0.00343	0.0586629	
0.003435	0.0597022	
0.00344	0.0606535	
0.003445	0.0615969	
0.00345	0.0624903	
0.003455	0.0632611	
0.00346	0.0639621	
0.003465	0.064679	
0.00347	0.0654675	
0.003475	0.0663134	
0.00348	0.0671573	
0.003485	0.0679599	
0.00349	0.0686972	
0.003495	0.0694043	
0.0035	0.0701529	
0.003505	0.0708937	
0.00351	0.0715466	
0.003515	0.0721107	
0.00352	0.0725896	
0.003525	0.0730372	
0.00353	0.0734905	
0.003535	0.0739737	
0.00354	0.0745487	
0.003545	0.0751572	
0.00355	0.0756639	
0.003555	0.0760795	
0.00356	0.0764629	
0.003565	0.0767593	
0.00357	0.0769845	
0.003575	0.0771995	
0.00358	0.0773502	
0.003585	0.0774037	
0.00359	0.0773907	
0.003595	0.0773344	
0.0036	0.0772522	
0.003605	0.0771569	
0.00361	0.0770573	
0.003615	0.0769598	
0.00362	0.0768681	
0.003625	0.0767847	
0.00363	0.0767106	
0.003635	0.0766463	
0.00364	0.0765913	
0.003645	0.0764976	
0.00365	0.0763353	
0.003655	0.0761355	
0.00366	0.0759202	
0.003665	0.0757051	
0.00367	0.0754527	
0.003675	0.07514	
0.00368	0.0748025	
0.003685	0.0744645	
0.00369	0.0739045	
0.003695	0.0729395	
0.0037	0.0718955	
0.003705	0.0710392	
0.00371	0.0703469	
0.003715	0.0697481	
0.00372	0.0691917	
0.003725	0.0687371	
0.00373	0.0683711	
0.003735	0.0679858	
0.00374	0.067606	
0.003745	0.0672953	
0.00375	0.0669973	
0.003755	0.0666743	
0.00376	0.0663025	
0.003765	0.0658211	
0.00377	0.0652426	
0.003775	0.0646275	
0.00378	0.0639697	
0.003785	0.06322	
0.00379	0.0623974	
0.003795	0.0615658	
0.0038	0.06072	
0.003805	0.0598098	
0.00381	0.0588527	
0.003815	0.0579098	
0.00382	0.057021	
0.003825	0.0561623	
0.00383	0.0553165	
0.003835	0.0545193	
0.00384	0.0536967	
0.003845	0.0527537	
0.00385	0.0517284	
0.003855	0.0506497	
0.00386	0.0494919	
0.003865	0.048289	
0.00387	0.0471133	
0.003875	0.0459637	
0.00388	0.0447905	
0.003885	0.0436098	
0.00389	0.0424324	
0.003895	0.0412653	
0.0039	0.0401603	
0.003905	0.0391008	
0.00391	0.0380741	
0.003915	0.0371174	
0.00392	0.0362046	
0.003925	0.0352689	
0.00393	0.0343149	
0.003935	0.0333938	
0.00394	0.0324905	
0.003945	0.0315465	
0.00395	0.0305729	
0.003955	0.0296258	
0.00396	0.0287409	
0.003965	0.027939	
0.00397	0.0271821	
0.003975	0.0263956	
0.00398	0.0255793	
0.003985	0.024782	
0.00399	0.0239873	
0.003995	0.023327	
0.004	0.0228817	
0.004005	0.0223139	
0.00401	0.0214545	
0.004015	0.0204436	
0.00402	0.0193806	
0.004025	0.0183334	
0.00403	0.0172987	
0.004035	0.0162262	
0.00404	0.0151318	
0.004045	0.0140748	
0.00405	0.0130925	
0.004055	0.0122058	
0.00406	0.0113766	
0.004065	0.0105295	
0.00407	0.00961556	
0.004075	0.00865323	
0.00408	0.00770451	
0.004085	0.00671458	
0.00409	0.00564921	
0.004095	0.00463204	
0.0041	0.00369476	
0.004105	0.00275941	
0.00411	0.0017745	
0.004115	0.000708431	
0.00412	-0.000408265	
0.004125	-0.00145799	
0.00413	-0.00231883	
0.004135	-0.00301443	
0.00414	-0.00371077	
0.004145	-0.00451728	
0.00415	-0.00535828	
0.004155	-0.0061347	
0.00416	-0.00687936	
0.004165	-0.0076154	
0.00417	-0.00831093	
0.004175	-0.0089944	
0.00418	-0.00973266	
0.004185	-0.0105197	
0.00419	-0.0113016	
0.004195	-0.0120431	
0.0042	-0.012723	
0.004205	-0.0132826	
0.00421	-0.0136888	
0.004215	-0.0140697	
0.00422	-0.0145111	
0.004225	-0.0149714	
0.00423	-0.0154699	
0.004235	-0.0160177	
0.00424	-0.0166194	
0.004245	-0.0173235	
0.00425	-0.0181092	
0.004255	-0.0189115	
0.00426	-0.0196869	
0.004265	-0.0204079	
0.00427	-0.0210589	
0.004275	-0.0216329	
0.00428	-0.022129	
0.004285	-0.0225504	
0.00429	-0.0229024	
0.004295	-0.0232397	
0.0043	-0.0238365	
0.004305	-0.0248139	
0.00431	-0.0258058	
0.004315	-0.0265702	
0.00432	-0.0271485	
0.004325	-0.0275768	
0.00433	-0.0278858	
0.004335	-0.0281016	
0.00434	-0.0282933	
0.004345	-0.0285551	
0.00435	-0.0288507	
0.004355	-0.0290595	
0.00436	-0.0292013	
0.004365	-0.0293872	
0.00437	-0.029641	
0.004375	-0.0299275	
0.00438	-0.0302221	
0.004385	-0.030508	
0.00439	-0.0307746	
0.004395	-0.0309685	
0.0044	-0.0310576	
0.004405	-0.0311211	
0.00441	-0.0312596	
0.004415	-0.0314886	
0.00442	-0.031719	
0.004425	-0.0318442	
0.00443	-0.0318467	
0.004435	-0.0318632	
0.00444	-0.0319832	
0.004445	-0.0321183	
0.00445	-0.0322093	
0.004455	-0.0322671	
0.00446	-0.0323477	
0.004465	-0.032487	
0.00447	-0.032611	
0.004475	-0.0326715	
0.00448	-0.0326872	
0.004485	-0.0326727	
0.00449	-0.0326389	
0.004495	-0.032594	
0.0045	-0.0325439	
0.004505	-0.0324452	
0.00451	-0.0323192	
0.004515	-0.0322761	
0.00452	-0.0322898	
0.004525	-0.0322452	
0.00453	-0.0320692	
0.004535	-0.0318148	
0.00454	-0.031616	
0.004545	-0.0314631	
0.00455	-0.0312527	
0.004555	-0.0309668	
0.00456	-0.0306446	
0.004565	-0.0303137	
0.00457	-0.0299928	
0.004575	-0.0296936	
0.00458	-0.0294229	
0.004585	-0.0291837	
0.00459	-0.0289292	
0.004595	-0.0285815	
0.0046	-0.0281412	
0.004605	-0.0276132	
0.00461	-0.0270048	
0.004615	-0.0264197	
0.00462	-0.0258777	
0.004625	-0.0252946	
0.00463	-0.024712	
0.004635	-0.0242048	
0.00464	-0.0237238	
0.004645	-0.0231878	
0.00465	-0.0224982	
0.004655	-0.0215973	
0.00466	-0.0205048	
0.004665	-0.0192424	
0.00467	-0.0178326	
0.004675	-0.0162974	
0.00468	-0.0146569	
0.004685	-0.0129296	
0.00469	-0.0111316	
0.004695	-0.00908684	
0.0047	-0.00654831	
0.004705	-0.00361412	
0.00471	-0.00046276	
0.004715	0.0027778	
0.00472	0.00592391	
0.004725	0.00900154	
0.00473	0.0120786	
0.004735	0.0151048	
0.00474	0.0180495	
0.004745	0.0208961	
0.00475	0.0236861	
0.004755	0.0264018	
0.00476	0.0289402	
0.004765	0.031289	
0.00477	0.0334494	
0.004775	0.0353833	
0.00478	0.0371239	
0.004785	0.0387499	
0.00479	0.0402709	
0.004795	0.0416983	
0.0048	0.0430915	
0.004805	0.0444438	
0.00481	0.0457052	
0.004815	0.0468945	
0.00482	0.0480751	
0.004825	0.0492892	
0.00483	0.050563	
0.004835	0.0519111	
0.00484	0.0532918	
0.004845	0.0545813	
0.00485	0.055702	
0.004855	0.0566585	
0.00486	0.057509	
0.004865	0.0583445	
0.00487	0.059178	
0.004875	0.0599709	
0.00488	0.060747	
0.004885	0.0615704	
0.00489	0.062386	
0.004895	0.0631104	
0.0049	0.063788	
0.004905	0.0644976	
0.00491	0.0651948	
0.004915	0.0658034	
0.00492	0.0663722	
0.004925	0.0669355	
0.00493	0.067516	
0.004935	0.068128	
0.00494	0.0687317	
0.004945	0.0693015	
0.00495	0.0697744	
0.004955	0.0701135	
0.00496	0.0703959	
0.004965	0.070675	
0.00497	0.0709389	
0.004975	0.0711802	
0.00498	0.0713951	
0.004985	0.0715826	
0.00499	0.0717431	
0.004995	0.0718781	
0.005	0.07199	
0.005005	0.072224	
0.00501	0.07267	
0.005015	0.0730921	
0.00502	0.0733834	
0.005025	0.0736223	
0.00503	0.0737201	
0.005035	0.0736253	
0.00504	0.0734555	
0.005045	0.0732918	
