Time - Plot 0	Amplitude - Plot 0	
0	0.00777362	
5E-6	0.00698137	
1E-5	0.00636649	
1.5E-5	0.00580255	
2E-5	0.00515628	
2.5E-5	0.00439121	
3E-5	0.003584	
3.5E-5	0.00273966	
4E-5	0.00186322	
4.5E-5	0.000959546	
5E-5	3.31177E-5	
5.5E-5	-0.000864495	
6E-5	-0.00174819	
6.5E-5	-0.00267598	
7E-5	-0.0036365	
7.5E-5	-0.00452563	
8E-5	-0.00532564	
8.5E-5	-0.00607658	
9E-5	-0.00675966	
9.5E-5	-0.00741321	
0.0001	-0.00811146	
0.000105	-0.00885369	
0.00011	-0.00954227	
0.000115	-0.0101629	
0.00012	-0.0108045	
0.000125	-0.011477	
0.00013	-0.0121857	
0.000135	-0.0129323	
0.00014	-0.013621	
0.000145	-0.0142389	
0.00015	-0.014876	
0.000155	-0.0155432	
0.00016	-0.0161987	
0.000165	-0.0168154	
0.00017	-0.0173774	
0.000175	-0.0178768	
0.00018	-0.0183587	
0.000185	-0.0189015	
0.00019	-0.0195062	
0.000195	-0.0201232	
0.0002	-0.020719	
0.000205	-0.0212728	
0.00021	-0.0218202	
0.000215	-0.0223849	
0.00022	-0.0229345	
0.000225	-0.0234955	
0.00023	-0.0240851	
0.000235	-0.0247133	
0.00024	-0.0253846	
0.000245	-0.0260527	
0.00025	-0.0267345	
0.000255	-0.0273932	
0.00026	-0.0279579	
0.000265	-0.0284815	
0.00027	-0.0290008	
0.000275	-0.0294926	
0.00028	-0.0299431	
0.000285	-0.030345	
0.00029	-0.0307434	
0.000295	-0.0311682	
0.0003	-0.0315903	
0.000305	-0.0319432	
0.00031	-0.0321386	
0.000315	-0.0322209	
0.00032	-0.0322724	
0.000325	-0.032301	
0.00033	-0.0323608	
0.000335	-0.0324859	
0.00034	-0.0326005	
0.000345	-0.0327028	
0.00035	-0.0328872	
0.000355	-0.033117	
0.00036	-0.0332709	
0.000365	-0.0333198	
0.00037	-0.0332497	
0.000375	-0.0329619	
0.00038	-0.0324015	
0.000385	-0.0315927	
0.00039	-0.0305635	
0.000395	-0.0293425	
0.0004	-0.0279577	
0.000405	-0.0264353	
0.00041	-0.0247992	
0.000415	-0.0230703	
0.00042	-0.0212671	
0.000425	-0.0194525	
0.00043	-0.0176688	
0.000435	-0.0158947	
0.00044	-0.0141633	
0.000445	-0.012542	
0.00045	-0.0110224	
0.000455	-0.00954663	
0.00046	-0.00807454	
0.000465	-0.00662695	
0.00047	-0.00521644	
0.000475	-0.0037545	
0.00048	-0.00228025	
0.000485	-0.000297189	
0.00049	0.00316347	
0.000495	0.00800513	
0.0005	0.0134808	
0.000505	0.0191155	
0.00051	0.0246361	
0.000515	0.0299154	
0.00052	0.0348335	
0.000525	0.0393283	
0.00053	0.0434266	
0.000535	0.047117	
0.00054	0.0504115	
0.000545	0.0533843	
0.00055	0.0560518	
0.000555	0.0583919	
0.00056	0.0604529	
0.000565	0.0623276	
0.00057	0.0640383	
0.000575	0.0656074	
0.00058	0.0670565	
0.000585	0.068358	
0.00059	0.0695481	
0.000595	0.0707035	
0.0006	0.071829	
0.000605	0.072929	
0.00061	0.0741029	
0.000615	0.0753649	
0.00062	0.0766254	
0.000625	0.0778252	
0.00063	0.0789284	
0.000635	0.0799631	
0.00064	0.0809989	
0.000645	0.0820338	
0.00065	0.0830193	
0.000655	0.0839256	
0.00066	0.0847843	
0.000665	0.0856186	
0.00067	0.0863973	
0.000675	0.08715	
0.00068	0.0878976	
0.000685	0.0886064	
0.00069	0.0892561	
0.000695	0.0898837	
0.0007	0.0905621	
0.000705	0.0913369	
0.00071	0.0922337	
0.000715	0.0932162	
0.00072	0.0942086	
0.000725	0.0951606	
0.00073	0.0960409	
0.000735	0.0968324	
0.00074	0.0975279	
0.000745	0.0981271	
0.00075	0.0986346	
0.000755	0.0990575	
0.00076	0.0994522	
0.000765	0.0999048	
0.00077	0.100374	
0.000775	0.100785	
0.00078	0.101185	
0.000785	0.101654	
0.00079	0.102194	
0.000795	0.10266	
0.0008	0.102913	
0.000805	0.103013	
0.00081	0.103103	
0.000815	0.10323	
0.00082	0.103327	
0.000825	0.103352	
0.00083	0.103377	
0.000835	0.103447	
0.00084	0.103544	
0.000845	0.103655	
0.00085	0.103769	
0.000855	0.103879	
0.00086	0.103983	
0.000865	0.104029	
0.00087	0.10394	
0.000875	0.103719	
0.00088	0.103421	
0.000885	0.103134	
0.00089	0.102916	
0.000895	0.102705	
0.0009	0.102462	
0.000905	0.102256	
0.00091	0.102133	
0.000915	0.102022	
0.00092	0.101877	
0.000925	0.101669	
0.00093	0.101381	
0.000935	0.101055	
0.00094	0.100719	
0.000945	0.100439	
0.00095	0.100211	
0.000955	0.099931	
0.00096	0.0995834	
0.000965	0.0991601	
0.00097	0.0986593	
0.000975	0.0981785	
0.00098	0.0977814	
0.000985	0.0974105	
0.00099	0.0969795	
0.000995	0.0964816	
0.001	0.0959158	
0.001005	0.0952367	
0.00101	0.0944676	
0.001015	0.0936755	
0.00102	0.0929057	
0.001025	0.0921395	
0.00103	0.0913169	
0.001035	0.0904483	
0.00104	0.0895907	
0.001045	0.0887807	
0.00105	0.087993	
0.001055	0.0871145	
0.00106	0.0861228	
0.001065	0.0851508	
0.00107	0.0841902	
0.001075	0.0830925	
0.00108	0.0819087	
0.001085	0.0807242	
0.00109	0.0795001	
0.001095	0.0783079	
0.0011	0.0772406	
0.001105	0.0762585	
0.00111	0.0752841	
0.001115	0.0743133	
0.00112	0.0733907	
0.001125	0.0724961	
0.00113	0.0715672	
0.001135	0.070612	
0.00114	0.0696846	
0.001145	0.068772	
0.00115	0.0677697	
0.001155	0.0666129	
0.00116	0.0653616	
0.001165	0.064107	
0.00117	0.0628622	
0.001175	0.0616351	
0.00118	0.0604777	
0.001185	0.0593736	
0.00119	0.0582616	
0.001195	0.057102	
0.0012	0.0559184	
0.001205	0.0547273	
0.00121	0.0535401	
0.001215	0.0524117	
0.00122	0.0512802	
0.001225	0.0501053	
0.00123	0.0490047	
0.001235	0.0480053	
0.00124	0.0470248	
0.001245	0.046008	
0.00125	0.0449203	
0.001255	0.0437898	
0.00126	0.0426845	
0.001265	0.0416006	
0.00127	0.040487	
0.001275	0.0393589	
0.00128	0.0382272	
0.001285	0.037099	
0.00129	0.0360264	
0.001295	0.0349938	
0.0013	0.0339413	
0.001305	0.0328304	
0.00131	0.0317335	
0.001315	0.0307453	
0.00132	0.0298279	
0.001325	0.0289055	
0.00133	0.0279285	
0.001335	0.026914	
0.00134	0.0258753	
0.001345	0.0248223	
0.00135	0.0238096	
0.001355	0.0228238	
0.00136	0.0218549	
0.001365	0.0208954	
0.00137	0.0198924	
0.001375	0.0189082	
0.00138	0.0180304	
0.001385	0.0171693	
0.00139	0.0162648	
0.001395	0.0154221	
0.0014	0.0146123	
0.001405	0.0136725	
0.00141	0.0125963	
0.001415	0.0114811	
0.00142	0.0103929	
0.001425	0.00937397	
0.00143	0.00844893	
0.001435	0.00762954	
0.00144	0.00687102	
0.001445	0.00609346	
0.00145	0.00529256	
0.001455	0.00451417	
0.00146	0.0037399	
0.001465	0.0029099	
0.00147	0.00198733	
0.001475	0.000999837	
0.00148	6.37707E-5	
0.001485	-0.000746576	
0.00149	-0.00148324	
0.001495	-0.00223155	
0.0015	-0.00299967	
0.001505	-0.00379207	
0.00151	-0.00461053	
0.001515	-0.00540747	
0.00152	-0.00620005	
0.001525	-0.00699981	
0.00153	-0.00781401	
0.001535	-0.00869429	
0.00154	-0.00962405	
0.001545	-0.0105424	
0.00155	-0.0114099	
0.001555	-0.0122503	
0.00156	-0.0130807	
0.001565	-0.0138176	
0.00157	-0.0144104	
0.001575	-0.0149279	
0.00158	-0.0153711	
0.001585	-0.0156494	
0.00159	-0.0158532	
0.001595	-0.0160934	
0.0016	-0.0163938	
0.001605	-0.0168622	
0.00161	-0.0175144	
0.001615	-0.0182093	
0.00162	-0.018852	
0.001625	-0.0194775	
0.00163	-0.020157	
0.001635	-0.0209351	
0.00164	-0.0217414	
0.001645	-0.0224331	
0.00165	-0.022969	
0.001655	-0.0233768	
0.00166	-0.0237284	
0.001665	-0.0241214	
0.00167	-0.0245706	
0.001675	-0.0250832	
0.00168	-0.0256608	
0.001685	-0.0262065	
0.00169	-0.0266578	
0.001695	-0.0270255	
0.0017	-0.0273682	
0.001705	-0.0277258	
0.00171	-0.0280287	
0.001715	-0.0282813	
0.00172	-0.0284887	
0.001725	-0.0285615	
0.00173	-0.0285895	
0.001735	-0.0287294	
0.00174	-0.0289839	
0.001745	-0.029302	
0.00175	-0.029647	
0.001755	-0.0299933	
0.00176	-0.0303242	
0.001765	-0.0306292	
0.00177	-0.0309028	
0.001775	-0.0311426	
0.00178	-0.0313489	
0.001785	-0.0315234	
0.00179	-0.0316685	
0.001795	-0.0317875	
0.0018	-0.0318836	
0.001805	-0.0319601	
0.00181	-0.03202	
0.001815	-0.0320662	
0.00182	-0.0321011	
0.001825	-0.032127	
0.00183	-0.0321456	
0.001835	-0.0321586	
0.00184	-0.0321673	
0.001845	-0.0321727	
0.00185	-0.0321757	
0.001855	-0.0321295	
0.00186	-0.0320054	
0.001865	-0.0318834	
0.00187	-0.0318161	
0.001875	-0.0317404	
0.00188	-0.0316154	
0.001885	-0.0314637	
0.00189	-0.031254	
0.001895	-0.031016	
0.0019	-0.0308182	
0.001905	-0.0306562	
0.00191	-0.030478	
0.001915	-0.0302023	
0.00192	-0.029828	
0.001925	-0.0294064	
0.00193	-0.0289734	
0.001935	-0.0284584	
0.00194	-0.0277235	
0.001945	-0.0267359	
0.00195	-0.025343	
0.001955	-0.0232735	
0.00196	-0.020618	
0.001965	-0.0176543	
0.00197	-0.0144849	
0.001975	-0.0111397	
0.00198	-0.0076941	
0.001985	-0.0042978	
0.00199	-0.0010471	
0.001995	0.00204893	
0.002	0.0049916	
0.002005	0.00778906	
0.00201	0.0104535	
0.002015	0.0130469	
0.00202	0.0156133	
0.002025	0.0180881	
0.00203	0.020433	
0.002035	0.0226289	
0.00204	0.0246226	
0.002045	0.0264838	
0.00205	0.0283123	
0.002055	0.0300802	
0.00206	0.031677	
0.002065	0.0330854	
0.00207	0.0344933	
0.002075	0.0360242	
0.00208	0.037659	
0.002085	0.03938	
0.00209	0.041124	
0.002095	0.0428007	
0.0021	0.0443536	
0.002105	0.0457991	
0.00211	0.0471529	
0.002115	0.0483822	
0.00212	0.0495188	
0.002125	0.0506356	
0.00213	0.0517341	
0.002135	0.0527685	
0.00214	0.0537593	
0.002145	0.0547695	
0.00215	0.0558399	
0.002155	0.0569468	
0.00216	0.0580254	
0.002165	0.0590344	
0.00217	0.0598547	
0.002175	0.0604166	
0.00218	0.0609243	
0.002185	0.0615624	
0.00219	0.0623037	
0.002195	0.0630781	
0.0022	0.0638376	
0.002205	0.064599	
0.00221	0.0654206	
0.002215	0.0662907	
0.00222	0.0671515	
0.002225	0.0679655	
0.00223	0.0687101	
0.002235	0.0694213	
0.00224	0.0701244	
0.002245	0.0707414	
0.00225	0.0712723	
0.002255	0.071769	
0.00226	0.0721721	
0.002265	0.0724943	
0.00227	0.0728432	
0.002275	0.0732405	
0.00228	0.0736511	
0.002285	0.074051	
0.00229	0.0743773	
0.002295	0.0745447	
0.0023	0.0745994	
0.002305	0.0746247	
0.00231	0.0746294	
0.002315	0.0746678	
0.00232	0.0747743	
0.002325	0.0749205	
0.00233	0.0750385	
0.002335	0.0750847	
0.00234	0.0750815	
0.002345	0.0749983	
0.00235	0.0748187	
0.002355	0.0745841	
0.00236	0.0743243	
0.002365	0.0740602	
0.00237	0.0738058	
0.002375	0.0735697	
0.00238	0.0733569	
0.002385	0.0731695	
0.00239	0.0730078	
0.002395	0.0728231	
0.0024	0.0725368	
0.002405	0.0721497	
0.00241	0.0717143	
0.002415	0.0712202	
0.00242	0.0706632	
0.002425	0.0700911	
0.00243	0.0694885	
0.002435	0.0687993	
0.00244	0.068038	
0.002445	0.0673127	
0.00245	0.0666931	
0.002455	0.0661248	
0.00246	0.0654747	
0.002465	0.0646587	
0.00247	0.0637721	
0.002475	0.0629282	
0.00248	0.062105	
0.002485	0.0612868	
0.00249	0.060463	
0.002495	0.0595795	
0.0025	0.0586508	
0.002505	0.0577363	
0.00251	0.0568743	
0.002515	0.0560403	
0.00252	0.055169	
0.002525	0.0542669	
0.00253	0.0533871	
0.002535	0.0525161	
0.00254	0.051597	
0.002545	0.0506421	
0.00255	0.0497088	
0.002555	0.048929	
0.00256	0.0483347	
0.002565	0.0477008	
0.00257	0.0469281	
0.002575	0.046053	
0.00258	0.0450565	
0.002585	0.0439797	
0.00259	0.0428534	
0.002595	0.0417	
0.0026	0.0405835	
0.002605	0.0394965	
0.00261	0.0384328	
0.002615	0.0374348	
0.00262	0.0365273	
0.002625	0.0356749	
0.00263	0.0348041	
0.002635	0.0338672	
0.00264	0.032836	
0.002645	0.0317439	
0.00265	0.0306633	
0.002655	0.0296413	
0.00266	0.0287064	
0.002665	0.0278255	
0.00267	0.0269268	
0.002675	0.0260115	
0.00268	0.0251283	
0.002685	0.0242607	
0.00269	0.0233493	
0.002695	0.0224045	
0.0027	0.0214825	
0.002705	0.0206191	
0.00271	0.0198351	
0.002715	0.0190931	
0.00272	0.0183187	
0.002725	0.0175121	
0.00273	0.0166749	
0.002735	0.0157621	
0.00274	0.0147949	
0.002745	0.0137903	
0.00275	0.0127133	
0.002755	0.011592	
0.00276	0.0104945	
0.002765	0.00946472	
0.00277	0.0085282	
0.002775	0.00764995	
0.00278	0.0067566	
0.002785	0.005848	
0.00279	0.00497232	
0.002795	0.00411224	
0.0028	0.00320804	
0.002805	0.00231753	
0.00281	0.00152569	
0.002815	0.000788824	
0.00282	2.7993E-5	
0.002825	-0.000760192	
0.00283	-0.0014816	
0.002835	-0.00212485	
0.00284	-0.00273369	
0.002845	-0.00329104	
0.00285	-0.00388315	
0.002855	-0.00461277	
0.00286	-0.00539856	
0.002865	-0.00618422	
0.00287	-0.0070277	
0.002875	-0.0078694	
0.00288	-0.00867013	
0.002885	-0.00950104	
0.00289	-0.0103601	
0.002895	-0.011197	
0.0029	-0.0120274	
0.002905	-0.0128617	
0.00291	-0.013659	
0.002915	-0.0144419	
0.00292	-0.0152257	
0.002925	-0.0159731	
0.00293	-0.0166611	
0.002935	-0.0172774	
0.00294	-0.0178173	
0.002945	-0.0183288	
0.00295	-0.0188924	
0.002955	-0.0194638	
0.00296	-0.0199657	
0.002965	-0.0204457	
0.00297	-0.0209359	
0.002975	-0.0214098	
0.00298	-0.0218504	
0.002985	-0.0222959	
0.00299	-0.0228185	
0.002995	-0.0233673	
0.003	-0.0238598	
0.003005	-0.0243395	
0.00301	-0.0248356	
0.003015	-0.025319	
0.00302	-0.0257712	
0.003025	-0.0261814	
0.00303	-0.0265921	
0.003035	-0.0270312	
0.00304	-0.0274207	
0.003045	-0.0277591	
0.00305	-0.0280954	
0.003055	-0.0284143	
0.00306	-0.0287543	
0.003065	-0.0291871	
0.00307	-0.0297081	
0.003075	-0.0302153	
0.00308	-0.0306416	
0.003085	-0.0309946	
0.00309	-0.0313301	
0.003095	-0.0316856	
0.0031	-0.03199	
0.003105	-0.0321988	
0.00311	-0.0323822	
0.003115	-0.0325877	
0.00312	-0.0327981	
0.003125	-0.0330018	
0.00313	-0.0331438	
0.003135	-0.033191	
0.00314	-0.0331733	
0.003145	-0.0331614	
0.00315	-0.0332487	
0.003155	-0.033445	
0.00316	-0.0337039	
0.003165	-0.0339441	
0.00317	-0.0340658	
0.003175	-0.0340558	
0.00318	-0.0339597	
0.003185	-0.0338112	
0.00319	-0.0336828	
0.003195	-0.0336687	
0.0032	-0.0337783	
0.003205	-0.0339166	
0.00321	-0.0339723	
0.003215	-0.0339233	
0.00322	-0.0338077	
0.003225	-0.0336536	
0.00323	-0.0334813	
0.003235	-0.0333053	
0.00324	-0.0331351	
0.003245	-0.0329768	
0.00325	-0.0328339	
0.003255	-0.0327078	
0.00326	-0.0325512	
0.003265	-0.0322869	
0.00327	-0.031869	
0.003275	-0.031227	
0.00328	-0.0298972	
0.003285	-0.0273686	
0.00329	-0.0239791	
0.003295	-0.0203249	
0.0033	-0.0165739	
0.003305	-0.0127939	
0.00331	-0.00907856	
0.003315	-0.00548642	
0.00332	-0.0020979	
0.003325	0.00104362	
0.00333	0.00401631	
0.003335	0.00687968	
0.00334	0.00963062	
0.003345	0.0122724	
0.00335	0.0148123	
0.003355	0.01726	
0.00336	0.0196261	
0.003365	0.0219217	
0.00337	0.0241097	
0.003375	0.0261233	
0.00338	0.0279742	
0.003385	0.0297729	
0.00339	0.0315946	
0.003395	0.033393	
0.0034	0.0351384	
0.003405	0.0368615	
0.00341	0.0385833	
0.003415	0.040318	
0.00342	0.0420742	
0.003425	0.0438565	
0.00343	0.0456194	
0.003435	0.047286	
0.00344	0.0488579	
0.003445	0.050388	
0.00345	0.0519133	
0.003455	0.0534108	
0.00346	0.0547716	
0.003465	0.0559304	
0.00347	0.0569488	
0.003475	0.0579214	
0.00348	0.0589129	
0.003485	0.0599651	
0.00349	0.061055	
0.003495	0.0621183	
0.0035	0.0631613	
0.003505	0.0642366	
0.00351	0.0653299	
0.003515	0.0663833	
0.00352	0.0673607	
0.003525	0.0682416	
0.00353	0.0690174	
0.003535	0.0697346	
0.00354	0.0704743	
0.003545	0.0712415	
0.00355	0.0719904	
0.003555	0.0726919	
0.00356	0.073329	
0.003565	0.0738935	
0.00357	0.0744309	
0.003575	0.0750201	
0.00358	0.0756156	
0.003585	0.076092	
0.00359	0.0764674	
0.003595	0.0768535	
0.0036	0.0772759	
0.003605	0.0777022	
0.00361	0.078111	
0.003615	0.0784889	
0.00362	0.0788286	
0.003625	0.0791745	
0.00363	0.0795557	
0.003635	0.0798946	
0.00364	0.0801421	
0.003645	0.0803175	
0.00365	0.0804372	
0.003655	0.0804669	
0.00366	0.0803884	
0.003665	0.0802897	
0.00367	0.0802299	
0.003675	0.0801987	
0.00368	0.0801877	
0.003685	0.0801906	
0.00369	0.0802025	
0.003695	0.0802198	
0.0037	0.0801923	
0.003705	0.080089	
0.00371	0.0799881	
0.003715	0.0799412	
0.00372	0.0798846	
0.003725	0.0797291	
0.00373	0.0794682	
0.003735	0.0791503	
0.00374	0.0788097	
0.003745	0.0784228	
0.00375	0.0779285	
0.003755	0.0773394	
0.00376	0.0767155	
0.003765	0.0760982	
0.00377	0.0755145	
0.003775	0.0749805	
0.00378	0.0745045	
0.003785	0.0740894	
0.00379	0.073734	
0.003795	0.0733872	
0.0038	0.0729674	
0.003805	0.0724243	
0.00381	0.0717305	
0.003815	0.0709227	
0.00382	0.0700778	
0.003825	0.0692485	
0.00383	0.0684211	
0.003835	0.0675391	
0.00384	0.0666152	
0.003845	0.0656599	
0.00385	0.0645864	
0.003855	0.0633908	
0.00386	0.0622187	
0.003865	0.061165	
0.00387	0.0602393	
0.003875	0.0594417	
0.00388	0.0587664	
0.003885	0.058156	
0.00389	0.0575223	
0.003895	0.0568557	
0.0039	0.0561513	
0.003905	0.0553127	
0.00391	0.0543303	
0.003915	0.0532994	
0.00392	0.0522379	
0.003925	0.0511588	
0.00393	0.0501192	
0.003935	0.0491548	
0.00394	0.048238	
0.003945	0.0473009	
0.00395	0.0462997	
0.003955	0.0452561	
0.00396	0.0442338	
0.003965	0.0432264	
0.00397	0.0421339	
0.003975	0.0409418	
0.00398	0.0398356	
0.003985	0.0388858	
0.00399	0.0379891	
0.003995	0.0371221	
0.004	0.0363159	
0.004005	0.0355402	
0.00401	0.0347263	
0.004015	0.0338307	
0.00402	0.0328284	
0.004025	0.0317557	
0.00403	0.0306398	
0.004035	0.029453	
0.00404	0.0282282	
0.004045	0.0270362	
0.00405	0.0259223	
0.004055	0.0248649	
0.00406	0.0238473	
0.004065	0.0229516	
0.00407	0.0221786	
0.004075	0.0214281	
0.00408	0.0206803	
0.004085	0.0199221	
0.00409	0.0191455	
0.004095	0.0183934	
0.0041	0.0175979	
0.004105	0.0166689	
0.00411	0.0156483	
0.004115	0.0145679	
0.00412	0.0134518	
0.004125	0.0124124	
0.00413	0.0114727	
0.004135	0.0105482	
0.00414	0.0096299	
0.004145	0.00875907	
0.00415	0.00796075	
0.004155	0.00715293	
0.00416	0.00623445	
0.004165	0.00528644	
0.00417	0.00441134	
0.004175	0.00357817	
0.00418	0.00276452	
0.004185	0.00200221	
0.00419	0.00126229	
0.004195	0.000524575	
0.0042	-0.000224317	
0.004205	-0.00104023	
0.00421	-0.00190928	
0.004215	-0.00277226	
0.00422	-0.00359042	
0.004225	-0.00434034	
0.00423	-0.00505732	
0.004235	-0.00581375	
0.00424	-0.00660794	
0.004245	-0.00738947	
0.00425	-0.00803061	
0.004255	-0.00850134	
0.00426	-0.00902757	
0.004265	-0.00966059	
0.00427	-0.0102865	
0.004275	-0.0109258	
0.00428	-0.0116386	
0.004285	-0.0124137	
0.00429	-0.0131933	
0.004295	-0.0139864	
0.0043	-0.0147986	
0.004305	-0.0155849	
0.00431	-0.0163168	
0.004315	-0.017026	
0.00432	-0.0177816	
0.004325	-0.018532	
0.00433	-0.0191961	
0.004335	-0.0198193	
0.00434	-0.0204337	
0.004345	-0.0210132	
0.00435	-0.0215422	
0.004355	-0.022013	
0.00436	-0.0224706	
0.004365	-0.0229454	
0.00437	-0.0233616	
0.004375	-0.023672	
0.00438	-0.0239453	
0.004385	-0.0242765	
0.00439	-0.0246776	
0.004395	-0.0251058	
0.0044	-0.0255317	
0.004405	-0.0259835	
0.00441	-0.0264785	
0.004415	-0.026931	
0.00442	-0.0272865	
0.004425	-0.0276089	
0.00443	-0.0279892	
0.004435	-0.0284373	
0.00444	-0.0289089	
0.004445	-0.0293736	
0.00445	-0.0298118	
0.004455	-0.0301168	
0.00446	-0.0302244	
0.004465	-0.0302919	
0.00447	-0.0304248	
0.004475	-0.0305945	
0.00448	-0.0307805	
0.004485	-0.0309684	
0.00449	-0.0311487	
0.004495	-0.031363	
0.0045	-0.0316371	
0.004505	-0.0318901	
0.00451	-0.0321173	
0.004515	-0.0324117	
0.00452	-0.0327366	
0.004525	-0.0330187	
0.00453	-0.0332591	
0.004535	-0.0334133	
0.00454	-0.0334556	
0.004545	-0.0334223	
0.00455	-0.0333407	
0.004555	-0.0332311	
0.00456	-0.0330131	
0.004565	-0.0324964	
0.00457	-0.0316644	
0.004575	-0.030664	
0.00458	-0.0295047	
0.004585	-0.028153	
0.00459	-0.0266432	
0.004595	-0.0250055	
0.0046	-0.0233134	
0.004605	-0.021618	
0.00461	-0.0198579	
0.004615	-0.0179959	
0.00462	-0.0161071	
0.004625	-0.0142901	
0.00463	-0.0125588	
0.004635	-0.0108232	
0.00464	-0.00907193	
0.004645	-0.00739307	
0.00465	-0.00565124	
0.004655	-0.00376013	
0.00466	-0.00195511	
0.004665	0.000230659	
0.00467	0.00370494	
0.004675	0.00833982	
0.00468	0.0134732	
0.004685	0.0186924	
0.00469	0.023769	
0.004695	0.0285588	
0.0047	0.0329807	
0.004705	0.0370933	
0.00471	0.0409027	
0.004715	0.0443794	
0.00472	0.0475199	
0.004725	0.0502902	
0.00473	0.0527804	
0.004735	0.0550633	
0.00474	0.0571014	
0.004745	0.0589294	
0.00475	0.0605798	
0.004755	0.0620827	
0.00476	0.0635122	
0.004765	0.0648733	
0.00477	0.066125	
0.004775	0.0672452	
0.00478	0.0682734	
0.004785	0.0692873	
0.00479	0.0703389	
0.004795	0.0714131	
0.0048	0.0724515	
0.004805	0.0734647	
0.00481	0.0744608	
0.004815	0.0754462	
0.00482	0.0764728	
0.004825	0.0775733	
0.00483	0.0787179	
0.004835	0.0798374	
0.00484	0.0808875	
0.004845	0.0817946	
0.00485	0.0825645	
0.004855	0.0833501	
0.00486	0.084204	
0.004865	0.0850626	
0.00487	0.0858836	
0.004875	0.086641	
0.00488	0.0873682	
0.004885	0.0880886	
0.00489	0.0887704	
0.004895	0.0894422	
0.0049	0.090123	
0.004905	0.0907301	
0.00491	0.0912598	
0.004915	0.0918086	
0.00492	0.0923915	
0.004925	0.0930168	
0.00493	0.0936881	
0.004935	0.0943104	
0.00494	0.0948235	
0.004945	0.0952402	
0.00495	0.0955738	
0.004955	0.0958367	
0.00496	0.0960881	
0.004965	0.0964151	
0.00497	0.0967765	
0.004975	0.0970484	
0.00498	0.0972485	
0.004985	0.0974868	
0.00499	0.0977865	
0.004995	0.0981126	
0.005	0.0984406	
0.005005	0.0987545	
0.00501	0.0990441	
0.005015	0.099304	
0.00502	0.0995321	
0.005025	0.0996808	
0.00503	0.0997227	
0.005035	0.0996921	
0.00504	0.0995676	
0.005045	0.0993397	
0.00505	0.0991018	
