Time - Plot 0	Amplitude - Plot 0	
0	-0.000154979	
5E-6	-0.000913855	
1E-5	-0.00170374	
1.5E-5	-0.00247671	
2E-5	-0.0031069	
2.5E-5	-0.00361313	
3E-5	-0.00410877	
3.5E-5	-0.00462152	
4E-5	-0.00516882	
4.5E-5	-0.0058081	
5E-5	-0.00657285	
5.5E-5	-0.0074317	
6E-5	-0.00831197	
6.5E-5	-0.00921226	
7E-5	-0.0100832	
7.5E-5	-0.010846	
8E-5	-0.011549	
8.5E-5	-0.0122268	
9E-5	-0.0129986	
9.5E-5	-0.013986	
0.0001	-0.0150213	
0.000105	-0.0159442	
0.00011	-0.0167492	
0.000115	-0.0174386	
0.00012	-0.018019	
0.000125	-0.0185001	
0.00013	-0.0189406	
0.000135	-0.0194284	
0.00014	-0.0199245	
0.000145	-0.020355	
0.00015	-0.0207694	
0.000155	-0.0212011	
0.00016	-0.0216239	
0.000165	-0.0220207	
0.00017	-0.0224292	
0.000175	-0.0229212	
0.00018	-0.0234924	
0.000185	-0.0240889	
0.00019	-0.0246738	
0.000195	-0.0252235	
0.0002	-0.0257714	
0.000205	-0.0263398	
0.00021	-0.0268473	
0.000215	-0.0272431	
0.00022	-0.0275465	
0.000225	-0.0278222	
0.00023	-0.0281141	
0.000235	-0.0284029	
0.00024	-0.0287235	
0.000245	-0.0290975	
0.00025	-0.029489	
0.000255	-0.0298734	
0.00026	-0.0302351	
0.000265	-0.0305647	
0.00027	-0.0308575	
0.000275	-0.0311122	
0.00028	-0.0313297	
0.000285	-0.0315124	
0.00029	-0.0316636	
0.000295	-0.0316917	
0.0003	-0.0314472	
0.000305	-0.0308919	
0.00031	-0.0300629	
0.000315	-0.0290452	
0.00032	-0.0281887	
0.000325	-0.0277643	
0.00033	-0.0275023	
0.000335	-0.0271221	
0.00034	-0.0265393	
0.000345	-0.0256603	
0.00035	-0.0244851	
0.000355	-0.0231225	
0.00036	-0.0216534	
0.000365	-0.0200884	
0.00037	-0.0184391	
0.000375	-0.0167172	
0.00038	-0.0149339	
0.000385	-0.0130992	
0.00039	-0.0113175	
0.000395	-0.00960744	
0.0004	-0.00783538	
0.000405	-0.00605872	
0.00041	-0.00436304	
0.000415	-0.0027059	
0.00042	-0.000582124	
0.000425	0.00279466	
0.00043	0.00736077	
0.000435	0.0124476	
0.00044	0.0176371	
0.000445	0.0227915	
0.00045	0.0277264	
0.000455	0.0322833	
0.00046	0.036518	
0.000465	0.040435	
0.00047	0.0439573	
0.000475	0.0470527	
0.00048	0.0497203	
0.000485	0.0520747	
0.00049	0.0543014	
0.000495	0.0564336	
0.0005	0.0584027	
0.000505	0.0601711	
0.00051	0.0617236	
0.000515	0.0631077	
0.00052	0.0644105	
0.000525	0.0656931	
0.00053	0.0669968	
0.000535	0.0683003	
0.00054	0.0695419	
0.000545	0.0707317	
0.00055	0.071926	
0.000555	0.0731143	
0.00056	0.0742426	
0.000565	0.0752778	
0.00057	0.0762502	
0.000575	0.0771829	
0.00058	0.0780926	
0.000585	0.079087	
0.00059	0.080185	
0.000595	0.0812996	
0.0006	0.0823723	
0.000605	0.0833666	
0.00061	0.0842623	
0.000615	0.0850981	
0.00062	0.08595	
0.000625	0.0868197	
0.00063	0.08766	
0.000635	0.0884412	
0.00064	0.0891464	
0.000645	0.0898158	
0.00065	0.090525	
0.000655	0.0912743	
0.00066	0.0920147	
0.000665	0.0927142	
0.00067	0.0934012	
0.000675	0.0941424	
0.00068	0.094932	
0.000685	0.0957161	
0.00069	0.0964595	
0.000695	0.0970933	
0.0007	0.09772	
0.000705	0.0985025	
0.00071	0.0992556	
0.000715	0.0997636	
0.00072	0.100086	
0.000725	0.100413	
0.00073	0.100823	
0.000735	0.101269	
0.00074	0.101716	
0.000745	0.102144	
0.00075	0.102539	
0.000755	0.102845	
0.00076	0.103032	
0.000765	0.103177	
0.00077	0.103337	
0.000775	0.103499	
0.00078	0.103654	
0.000785	0.103797	
0.00079	0.103925	
0.000795	0.104039	
0.0008	0.104136	
0.000805	0.104219	
0.00081	0.104287	
0.000815	0.104344	
0.00082	0.10439	
0.000825	0.104379	
0.00083	0.104235	
0.000835	0.103965	
0.00084	0.10367	
0.000845	0.103421	
0.00085	0.103166	
0.000855	0.102872	
0.00086	0.102566	
0.000865	0.102267	
0.00087	0.101986	
0.000875	0.101731	
0.00088	0.101457	
0.000885	0.101136	
0.00089	0.100799	
0.000895	0.100421	
0.0009	0.0999849	
0.000905	0.0994843	
0.00091	0.0989172	
0.000915	0.0983806	
0.00092	0.097937	
0.000925	0.0975757	
0.00093	0.0972383	
0.000935	0.0968374	
0.00094	0.0963662	
0.000945	0.0958233	
0.00095	0.0952113	
0.000955	0.0945827	
0.00096	0.0939254	
0.000965	0.0932326	
0.00097	0.0925493	
0.000975	0.0918569	
0.00098	0.0911438	
0.000985	0.0904508	
0.00099	0.0897563	
0.000995	0.0890461	
0.001	0.0883591	
0.001005	0.0875773	
0.00101	0.0865799	
0.001015	0.0854874	
0.00102	0.084384	
0.001025	0.0832304	
0.00103	0.0820033	
0.001035	0.0807382	
0.00104	0.0795079	
0.001045	0.0783111	
0.00105	0.0771456	
0.001055	0.0760558	
0.00106	0.0750199	
0.001065	0.0739735	
0.00107	0.0728746	
0.001075	0.0717455	
0.00108	0.0706499	
0.001085	0.0695807	
0.00109	0.0684844	
0.001095	0.0673745	
0.0011	0.0663081	
0.001105	0.0652734	
0.00111	0.0641659	
0.001115	0.0629677	
0.00112	0.0618138	
0.001125	0.0607439	
0.00113	0.0596847	
0.001135	0.0586353	
0.00114	0.0576418	
0.001145	0.0566848	
0.00115	0.055702	
0.001155	0.0547011	
0.00116	0.0536881	
0.001165	0.0526199	
0.00117	0.0515184	
0.001175	0.050447	
0.00118	0.0493985	
0.001185	0.0483198	
0.00119	0.0472245	
0.001195	0.0461701	
0.0012	0.0451451	
0.001205	0.0440928	
0.00121	0.0430247	
0.001215	0.0419968	
0.00122	0.0409965	
0.001225	0.0399665	
0.00123	0.0388707	
0.001235	0.0376882	
0.00124	0.036457	
0.001245	0.0352518	
0.00125	0.0341209	
0.001255	0.0330448	
0.00126	0.0319608	
0.001265	0.0308752	
0.00127	0.0298399	
0.001275	0.0288393	
0.00128	0.0278613	
0.001285	0.0269444	
0.00129	0.0260162	
0.001295	0.0249818	
0.0013	0.0238788	
0.001305	0.0227826	
0.00131	0.0216954	
0.001315	0.0206178	
0.00132	0.0195977	
0.001325	0.0186161	
0.00133	0.0176113	
0.001335	0.0165436	
0.00134	0.0154375	
0.001345	0.0143583	
0.00135	0.0133479	
0.001355	0.0124306	
0.00136	0.0116182	
0.001365	0.0108182	
0.00137	0.00992169	
0.001375	0.0090039	
0.00138	0.00811551	
0.001385	0.00719344	
0.00139	0.00624525	
0.001395	0.00532468	
0.0014	0.0045134	
0.001405	0.00395516	
0.00141	0.00363769	
0.001415	0.00330385	
0.00142	0.00278486	
0.001425	0.00212082	
0.00143	0.00134499	
0.001435	0.000484633	
0.00144	-0.000390774	
0.001445	-0.00128223	
0.00145	-0.00223718	
0.001455	-0.00323636	
0.00146	-0.00421744	
0.001465	-0.00518773	
0.00147	-0.00620007	
0.001475	-0.0072398	
0.00148	-0.00820087	
0.001485	-0.00906462	
0.00149	-0.00991843	
0.001495	-0.0107728	
0.0015	-0.0115872	
0.001505	-0.0123842	
0.00151	-0.0132271	
0.001515	-0.014108	
0.00152	-0.0149722	
0.001525	-0.0157846	
0.00153	-0.0165244	
0.001535	-0.0172288	
0.00154	-0.0179242	
0.001545	-0.0185807	
0.00155	-0.019228	
0.001555	-0.0198862	
0.00156	-0.0205205	
0.001565	-0.021109	
0.00157	-0.021687	
0.001575	-0.0222783	
0.00158	-0.0228028	
0.001585	-0.0232109	
0.00159	-0.0235231	
0.001595	-0.0237572	
0.0016	-0.0239762	
0.001605	-0.0242701	
0.00161	-0.0245994	
0.001615	-0.0248889	
0.00162	-0.0251861	
0.001625	-0.0255218	
0.00163	-0.025867	
0.001635	-0.0262497	
0.00164	-0.0267341	
0.001645	-0.0273101	
0.00165	-0.0278718	
0.001655	-0.0283024	
0.00166	-0.0285787	
0.001665	-0.0287401	
0.00167	-0.0288657	
0.001675	-0.0290094	
0.00168	-0.029158	
0.001685	-0.0293505	
0.00169	-0.0296104	
0.001695	-0.0299024	
0.0017	-0.0302017	
0.001705	-0.0304917	
0.00171	-0.0308094	
0.001715	-0.0311303	
0.00172	-0.0312956	
0.001725	-0.0313029	
0.00173	-0.0313007	
0.001735	-0.0312925	
0.00174	-0.031233	
0.001745	-0.0311901	
0.00175	-0.0312078	
0.001755	-0.0312645	
0.00176	-0.0313443	
0.001765	-0.031388	
0.00177	-0.0313583	
0.001775	-0.0312816	
0.00178	-0.03113	
0.001785	-0.0308886	
0.00179	-0.0306471	
0.001795	-0.0305119	
0.0018	-0.0305483	
0.001805	-0.0305534	
0.00181	-0.0302526	
0.001815	-0.0298117	
0.00182	-0.029442	
0.001825	-0.0290892	
0.00183	-0.0286215	
0.001835	-0.02772	
0.00184	-0.0260522	
0.001845	-0.0236728	
0.00185	-0.0207941	
0.001855	-0.0175799	
0.00186	-0.0142488	
0.001865	-0.0109507	
0.00187	-0.00768776	
0.001875	-0.00441218	
0.00188	-0.00123567	
0.001885	0.00153515	
0.00189	0.00376481	
0.001895	0.00562729	
0.0019	0.0073497	
0.001905	0.00904092	
0.00191	0.0107266	
0.001915	0.0124241	
0.00192	0.0140965	
0.001925	0.0157208	
0.00193	0.0173317	
0.001935	0.0190002	
0.00194	0.0208178	
0.001945	0.0227429	
0.00195	0.0246477	
0.001955	0.0264967	
0.00196	0.0283165	
0.001965	0.030126	
0.00197	0.0319382	
0.001975	0.033714	
0.00198	0.0354294	
0.001985	0.0371188	
0.00199	0.0388064	
0.001995	0.0405079	
0.002	0.0421857	
0.002005	0.0437685	
0.00201	0.0452138	
0.002015	0.0465	
0.00202	0.0476682	
0.002025	0.0488458	
0.00203	0.050069	
0.002035	0.0512168	
0.00204	0.0522608	
0.002045	0.0533294	
0.00205	0.0545063	
0.002055	0.0557466	
0.00206	0.0569699	
0.002065	0.0581242	
0.00207	0.0591784	
0.002075	0.0601643	
0.00208	0.0611536	
0.002085	0.0621459	
0.00209	0.0630931	
0.002095	0.0640135	
0.0021	0.0649677	
0.002105	0.0661366	
0.00211	0.0676297	
0.002115	0.0691231	
0.00212	0.0703561	
0.002125	0.0714065	
0.00213	0.0723344	
0.002135	0.0731376	
0.00214	0.0738207	
0.002145	0.0743922	
0.00215	0.0748631	
0.002155	0.0752455	
0.00216	0.0755513	
0.002165	0.0757923	
0.00217	0.075979	
0.002175	0.0761212	
0.00218	0.0762273	
0.002185	0.0763046	
0.00219	0.0763592	
0.002195	0.0764438	
0.0022	0.0766392	
0.002205	0.0770887	
0.00221	0.077827	
0.002215	0.0785781	
0.00222	0.0791122	
0.002225	0.0793827	
0.00223	0.0794191	
0.002235	0.079347	
0.00224	0.0792543	
0.002245	0.0791524	
0.00225	0.0790492	
0.002255	0.0789026	
0.00226	0.0786867	
0.002265	0.0784353	
0.00227	0.0781724	
0.002275	0.0779144	
0.00228	0.0776243	
0.002285	0.0773267	
0.00229	0.0771334	
0.002295	0.0769703	
0.0023	0.0767875	
0.002305	0.0766477	
0.00231	0.0764479	
0.002315	0.076218	
0.00232	0.0761217	
0.002325	0.076118	
0.00233	0.0760806	
0.002335	0.07588	
0.00234	0.0754387	
0.002345	0.0748121	
0.00235	0.0740929	
0.002355	0.0732992	
0.00236	0.0723987	
0.002365	0.071423	
0.00237	0.0704438	
0.002375	0.0695086	
0.00238	0.0686466	
0.002385	0.0678262	
0.00239	0.0669769	
0.002395	0.0661012	
0.0024	0.0652495	
0.002405	0.0644064	
0.00241	0.0634662	
0.002415	0.0624113	
0.00242	0.0613784	
0.002425	0.0604087	
0.00243	0.0594316	
0.002435	0.0584481	
0.00244	0.0575071	
0.002445	0.0566385	
0.00245	0.0558588	
0.002455	0.055127	
0.00246	0.0543663	
0.002465	0.0535751	
0.00247	0.0527536	
0.002475	0.0518559	
0.00248	0.0509029	
0.002485	0.0499585	
0.00249	0.0490645	
0.002495	0.0482459	
0.0025	0.0474683	
0.002505	0.0466594	
0.00251	0.0458681	
0.002515	0.0451259	
0.00252	0.0443085	
0.002525	0.0433852	
0.00253	0.0423881	
0.002535	0.0412945	
0.00254	0.0401414	
0.002545	0.0390037	
0.00255	0.0379299	
0.002555	0.0369014	
0.00256	0.0358565	
0.002565	0.0348502	
0.00257	0.0339169	
0.002575	0.0329332	
0.00258	0.0318678	
0.002585	0.0307989	
0.00259	0.0297783	
0.002595	0.0288378	
0.0026	0.0279945	
0.002605	0.0272553	
0.00261	0.0265721	
0.002615	0.0258631	
0.00262	0.025123	
0.002625	0.0243975	
0.00263	0.0236684	
0.002635	0.0228763	
0.00264	0.0219851	
0.002645	0.0209756	
0.00265	0.0198883	
0.002655	0.0188011	
0.00266	0.0177655	
0.002665	0.0167653	
0.00267	0.0157882	
0.002675	0.0148726	
0.00268	0.0139933	
0.002685	0.0131319	
0.00269	0.0123232	
0.002695	0.0115398	
0.0027	0.0107152	
0.002705	0.00980726	
0.00271	0.00883985	
0.002715	0.00787896	
0.00272	0.00692028	
0.002725	0.00596087	
0.00273	0.00499882	
0.002735	0.00403299	
0.00274	0.00315789	
0.002745	0.00238401	
0.00275	0.00161839	
0.002755	0.000846892	
0.00276	6.048E-5	
0.002765	-0.000793644	
0.00277	-0.00169955	
0.002775	-0.00259675	
0.00278	-0.00344578	
0.002785	-0.00422288	
0.00279	-0.00496335	
0.002795	-0.0057397	
0.0028	-0.00655054	
0.002805	-0.00734575	
0.00281	-0.00818813	
0.002815	-0.00916437	
0.00282	-0.0101352	
0.002825	-0.0109614	
0.00283	-0.0117007	
0.002835	-0.0123953	
0.00284	-0.0130276	
0.002845	-0.0136365	
0.00285	-0.0142961	
0.002855	-0.0150055	
0.00286	-0.0157143	
0.002865	-0.0164366	
0.00287	-0.0171812	
0.002875	-0.0179053	
0.00288	-0.0185816	
0.002885	-0.0191469	
0.00289	-0.0196123	
0.002895	-0.0200848	
0.0029	-0.0205873	
0.002905	-0.0210857	
0.00291	-0.0216054	
0.002915	-0.0221621	
0.00292	-0.0226693	
0.002925	-0.0231199	
0.00293	-0.023607	
0.002935	-0.0241425	
0.00294	-0.0246372	
0.002945	-0.025034	
0.00295	-0.0253951	
0.002955	-0.025763	
0.00296	-0.0260705	
0.002965	-0.0263236	
0.00297	-0.026624	
0.002975	-0.0269413	
0.00298	-0.0272073	
0.002985	-0.0274743	
0.00299	-0.0278245	
0.002995	-0.0282605	
0.003	-0.0286849	
0.003005	-0.0291767	
0.00301	-0.0298798	
0.003015	-0.0305938	
0.00302	-0.0311387	
0.003025	-0.0314988	
0.00303	-0.0316725	
0.003035	-0.0317626	
0.00304	-0.0318408	
0.003045	-0.0319075	
0.00305	-0.0319635	
0.003055	-0.0320097	
0.00306	-0.0320473	
0.003065	-0.0320775	
0.00307	-0.0321013	
0.003075	-0.0321199	
0.00308	-0.0321816	
0.003085	-0.0323639	
0.00309	-0.0326171	
0.003095	-0.03281	
0.0031	-0.0329065	
0.003105	-0.0329823	
0.00311	-0.0330886	
0.003115	-0.0332574	
0.00312	-0.0335545	
0.003125	-0.0338746	
0.00313	-0.0340521	
0.003135	-0.0340797	
0.00314	-0.0340547	
0.003145	-0.0340912	
0.00315	-0.0341666	
0.003155	-0.0342165	
0.00316	-0.0342473	
0.003165	-0.0342164	
0.00317	-0.0340988	
0.003175	-0.0339296	
0.00318	-0.0337344	
0.003185	-0.0335313	
0.00319	-0.0333325	
0.003195	-0.033146	
0.0032	-0.0329765	
0.003205	-0.0328261	
0.00321	-0.032648	
0.003215	-0.0323649	
0.00322	-0.0319784	
0.003225	-0.0315421	
0.00323	-0.031046	
0.003235	-0.0304864	
0.00324	-0.029959	
0.003245	-0.0294777	
0.00325	-0.0287168	
0.003255	-0.0272847	
0.00326	-0.0251926	
0.003265	-0.0226216	
0.00327	-0.0197139	
0.003275	-0.0166266	
0.00328	-0.0134719	
0.003285	-0.0103268	
0.00329	-0.0071943	
0.003295	-0.00407558	
0.0033	-0.00101841	
0.003305	0.00194866	
0.00331	0.00500119	
0.003315	0.00825091	
0.00332	0.0113819	
0.003325	0.0141914	
0.00333	0.0167036	
0.003335	0.0189484	
0.00334	0.0210535	
0.003345	0.0231094	
0.00335	0.0251308	
0.003355	0.0271288	
0.00336	0.0290644	
0.003365	0.0308674	
0.00337	0.0325452	
0.003375	0.0341562	
0.00338	0.0357419	
0.003385	0.0373311	
0.00339	0.0389425	
0.003395	0.0405398	
0.0034	0.0420524	
0.003405	0.043485	
0.00341	0.0448446	
0.003415	0.0460919	
0.00342	0.0472061	
0.003425	0.0482749	
0.00343	0.0494534	
0.003435	0.0507435	
0.00344	0.0520462	
0.003445	0.0532956	
0.00345	0.0544507	
0.003455	0.0554891	
0.00346	0.0564488	
0.003465	0.0574065	
0.00347	0.058365	
0.003475	0.0592787	
0.00348	0.0601672	
0.003485	0.0610921	
0.00349	0.0620449	
0.003495	0.0629233	
0.0035	0.0636638	
0.003505	0.0643257	
0.00351	0.0649521	
0.003515	0.0655254	
0.00352	0.0661792	
0.003525	0.0670453	
0.00353	0.0680105	
0.003535	0.0689477	
0.00354	0.0697747	
0.003545	0.0704423	
0.00355	0.0709733	
0.003555	0.0713891	
0.00356	0.0717092	
0.003565	0.0719987	
0.00357	0.0723494	
0.003575	0.0727713	
0.00358	0.0732203	
0.003585	0.0736183	
0.00359	0.0739164	
0.003595	0.074182	
0.0036	0.0744612	
0.003605	0.0747361	
0.00361	0.0749952	
0.003615	0.074994	
0.00362	0.0745834	
0.003625	0.0741602	
0.00363	0.0740337	
0.003635	0.0741564	
0.00364	0.0743902	
0.003645	0.0745909	
0.00365	0.074713	
0.003655	0.0748248	
0.00366	0.0749247	
0.003665	0.0749168	
0.00367	0.0748384	
0.003675	0.0748121	
0.00368	0.0748215	
0.003685	0.0747589	
0.00369	0.0746042	
0.003695	0.0743962	
0.0037	0.0741628	
0.003705	0.0739237	
0.00371	0.0736447	
0.003715	0.0732574	
0.00372	0.0727696	
0.003725	0.0721434	
0.00373	0.0713606	
0.003735	0.0705591	
0.00374	0.0697831	
0.003745	0.0690132	
0.00375	0.0682836	
0.003755	0.0676152	
0.00376	0.0670187	
0.003765	0.0664978	
0.00377	0.066004	
0.003775	0.0654561	
0.00378	0.0648511	
0.003785	0.0641895	
0.00379	0.0634268	
0.003795	0.0625859	
0.0038	0.0617333	
0.003805	0.0609133	
0.00381	0.0601535	
0.003815	0.0594694	
0.00382	0.0588201	
0.003825	0.0581292	
0.00383	0.0573487	
0.003835	0.0564508	
0.00384	0.0554705	
0.003845	0.0544346	
0.00385	0.0533637	
0.003855	0.0523677	
0.00386	0.0514683	
0.003865	0.0505801	
0.00387	0.0496937	
0.003875	0.0488028	
0.00388	0.0478562	
0.003885	0.0468699	
0.00389	0.0459042	
0.003895	0.0449977	
0.0039	0.0441256	
0.003905	0.0432224	
0.00391	0.0422938	
0.003915	0.0413449	
0.00392	0.0402848	
0.003925	0.0391066	
0.00393	0.0379537	
0.003935	0.036872	
0.00394	0.0358408	
0.003945	0.0348919	
0.00395	0.0339944	
0.003955	0.0331258	
0.00396	0.0322697	
0.003965	0.0313674	
0.00397	0.0304773	
0.003975	0.0296847	
0.00398	0.028899	
0.003985	0.0280124	
0.00399	0.0270536	
0.003995	0.0260925	
0.004	0.0251754	
0.004005	0.0242832	
0.00401	0.0233545	
0.004015	0.0224931	
0.00402	0.0218121	
0.004025	0.021187	
0.00403	0.0206759	
0.004035	0.0203593	
0.00404	0.0199481	
0.004045	0.0193039	
0.00405	0.0185366	
0.004055	0.0177243	
0.00406	0.0168734	
0.004065	0.015942	
0.00407	0.0149067	
0.004075	0.0137566	
0.00408	0.0124903	
0.004085	0.0111597	
0.00409	0.00984961	
0.004095	0.00856748	
0.0041	0.00731689	
0.004105	0.00614625	
0.00411	0.0050837	
0.004115	0.00414266	
0.00412	0.00327872	
0.004125	0.00245894	
0.00413	0.00170705	
0.004135	0.000987953	
0.00414	0.000229415	
0.004145	-0.000566784	
0.00415	-0.00135016	
0.004155	-0.00213556	
0.00416	-0.00293268	
0.004165	-0.00369983	
0.00417	-0.00441094	
0.004175	-0.005099	
0.00418	-0.00578684	
0.004185	-0.00644202	
0.00419	-0.0070922	
0.004195	-0.00775587	
0.0042	-0.00834952	
0.004205	-0.00882137	
0.00421	-0.00923815	
0.004215	-0.00969396	
0.00422	-0.010249	
0.004225	-0.0108908	
0.00423	-0.011607	
0.004235	-0.0123858	
0.00424	-0.0130741	
0.004245	-0.0136225	
0.00425	-0.014243	
0.004255	-0.0150718	
0.00426	-0.0159987	
0.004265	-0.0168989	
0.00427	-0.0177865	
0.004275	-0.0186238	
0.00428	-0.0193407	
0.004285	-0.019992	
0.00429	-0.0206167	
0.004295	-0.0211943	
0.0043	-0.0217611	
0.004305	-0.022389	
0.00431	-0.02298	
0.004315	-0.0233761	
0.00432	-0.023815	
0.004325	-0.0245467	
0.00433	-0.0252942	
0.004335	-0.0258266	
0.00434	-0.0261921	
0.004345	-0.0264301	
0.00435	-0.0266204	
0.004355	-0.0268178	
0.00436	-0.0270581	
0.004365	-0.0274103	
0.00437	-0.0278672	
0.004375	-0.0283716	
0.00438	-0.0288833	
0.004385	-0.0293758	
0.00439	-0.0297846	
0.004395	-0.0300716	
0.0044	-0.030312	
0.004405	-0.030558	
0.00441	-0.0307485	
0.004415	-0.0307507	
0.00442	-0.0304861	
0.004425	-0.0300106	
0.00443	-0.029371	
0.004435	-0.0287484	
0.00444	-0.0284518	
0.004445	-0.0285267	
0.00445	-0.0287956	
0.004455	-0.0290369	
0.00446	-0.0291061	
0.004465	-0.0289159	
0.00447	-0.0284211	
0.004475	-0.0277013	
0.00448	-0.0268197	
0.004485	-0.0257305	
0.00449	-0.0243657	
0.004495	-0.0227888	
0.0045	-0.021099	
0.004505	-0.0193197	
0.00451	-0.0175655	
0.004515	-0.0159108	
0.00452	-0.0143049	
0.004525	-0.0127121	
0.00453	-0.0111082	
0.004535	-0.00947772	
0.00454	-0.0078118	
0.004545	-0.00563088	
0.00455	-0.00221531	
0.004555	0.00232813	
0.00456	0.00744786	
0.004565	0.012753	
0.00457	0.0179769	
0.004575	0.0230428	
0.00458	0.02786	
0.004585	0.0322379	
0.00459	0.0360715	
0.004595	0.0394124	
0.0046	0.0423656	
0.004605	0.0450184	
0.00461	0.0474429	
0.004615	0.0496496	
0.00462	0.051656	
0.004625	0.0536254	
0.00463	0.05562	
0.004635	0.0574893	
0.00464	0.0591876	
0.004645	0.0607403	
0.00465	0.0621711	
0.004655	0.0635015	
0.00466	0.0646551	
0.004665	0.0656376	
0.00467	0.0666035	
0.004675	0.0676553	
0.00468	0.0688091	
0.004685	0.0700706	
0.00469	0.0713435	
0.004695	0.0725637	
0.0047	0.073834	
0.004705	0.0751248	
0.00471	0.0762731	
0.004715	0.077273	
0.00472	0.0782229	
0.004725	0.0791424	
0.00473	0.0799984	
0.004735	0.0808671	
0.00474	0.0818457	
0.004745	0.0828504	
0.00475	0.0837774	
0.004755	0.0846568	
0.00476	0.0855582	
0.004765	0.0864791	
0.00477	0.0873693	
0.004775	0.0882447	
0.00478	0.0891639	
0.004785	0.0901162	
0.00479	0.0910452	
0.004795	0.0919148	
0.0048	0.0927043	
0.004805	0.093451	
0.00481	0.0941819	
0.004815	0.0948676	
0.00482	0.0955387	
0.004825	0.096216	
0.00483	0.0968653	
0.004835	0.0974654	
0.00484	0.0980048	
0.004845	0.0985261	
0.00485	0.0991059	
0.004855	0.0997444	
0.00486	0.100391	
0.004865	0.101013	
0.00487	0.101589	
0.004875	0.102108	
0.00488	0.102564	
0.004885	0.10291	
0.00489	0.103119	
0.004895	0.103276	
0.0049	0.103438	
0.004905	0.103597	
0.00491	0.103745	
0.004915	0.103927	
0.00492	0.10417	
0.004925	0.104395	
0.00493	0.104406	
0.004935	0.104134	
0.00494	0.103831	
0.004945	0.103663	
0.00495	0.103593	
0.004955	0.103544	
0.00496	0.103462	
0.004965	0.103364	
0.00497	0.103258	
0.004975	0.103201	
0.00498	0.103226	
0.004985	0.103256	
0.00499	0.103193	
0.004995	0.103025	
0.005	0.102747	
0.005005	0.102362	
0.00501	0.101925	
0.005015	0.101475	
0.00502	0.101085	
0.005025	0.100752	
0.00503	0.100426	
0.005035	0.100167	
0.00504	0.100012	
0.005045	0.099886	
0.00505	0.0996416	
0.005055	0.099236	
0.00506	0.0987432	
0.005065	0.0982164	
