Time - Plot 0	Amplitude - Plot 0	
0	0.00276222	
5E-6	0.00176092	
1E-5	0.000827287	
1.5E-5	-6.51027E-5	
2E-5	-0.000935627	
2.5E-5	-0.00175056	
3E-5	-0.00253783	
3.5E-5	-0.0033647	
4E-5	-0.00427363	
4.5E-5	-0.00519369	
5E-5	-0.00603003	
5.5E-5	-0.00681914	
6E-5	-0.00758734	
6.5E-5	-0.0083054	
7E-5	-0.00895645	
7.5E-5	-0.00958005	
8E-5	-0.0102511	
8.5E-5	-0.0109693	
9E-5	-0.0116846	
9.5E-5	-0.0123641	
0.0001	-0.0130355	
0.000105	-0.0137647	
0.00011	-0.0145452	
0.000115	-0.0153226	
0.00012	-0.0160612	
0.000125	-0.0167392	
0.00013	-0.0173927	
0.000135	-0.0180943	
0.00014	-0.0188895	
0.000145	-0.0197562	
0.00015	-0.0205817	
0.000155	-0.0212933	
0.00016	-0.0219438	
0.000165	-0.0225707	
0.00017	-0.0231525	
0.000175	-0.0238195	
0.00018	-0.0247014	
0.000185	-0.0256356	
0.00019	-0.0264176	
0.000195	-0.0270148	
0.0002	-0.0274617	
0.000205	-0.0278361	
0.00021	-0.0281924	
0.000215	-0.0284724	
0.00022	-0.0286889	
0.000225	-0.0289483	
0.00023	-0.0292713	
0.000235	-0.0296209	
0.00024	-0.0299715	
0.000245	-0.0303063	
0.00025	-0.0306147	
0.000255	-0.0308912	
0.00026	-0.0311811	
0.000265	-0.0315136	
0.00027	-0.031811	
0.000275	-0.0321188	
0.00028	-0.0325613	
0.000285	-0.0330243	
0.00029	-0.0333838	
0.000295	-0.0337056	
0.0003	-0.0340348	
0.000305	-0.0343534	
0.00031	-0.0346499	
0.000315	-0.0349178	
0.00032	-0.0351542	
0.000325	-0.0353111	
0.00033	-0.0353606	
0.000335	-0.035337	
0.00034	-0.0352187	
0.000345	-0.0350436	
0.00035	-0.0349345	
0.000355	-0.0348739	
0.00036	-0.0348007	
0.000365	-0.0347227	
0.00037	-0.0347402	
0.000375	-0.0349149	
0.00038	-0.0351376	
0.000385	-0.0353812	
0.00039	-0.0355797	
0.000395	-0.0355964	
0.0004	-0.035445	
0.000405	-0.0351897	
0.00041	-0.0348782	
0.000415	-0.0345443	
0.00042	-0.0342114	
0.000425	-0.0338949	
0.00043	-0.0335566	
0.000435	-0.033125	
0.00044	-0.0326047	
0.000445	-0.0319554	
0.00045	-0.0310616	
0.000455	-0.0296687	
0.00046	-0.0274421	
0.000465	-0.0244384	
0.00047	-0.0209693	
0.000475	-0.0173099	
0.00048	-0.0135554	
0.000485	-0.00963075	
0.00049	-0.00568435	
0.000495	-0.00200535	
0.0005	0.00127578	
0.000505	0.00418693	
0.00051	0.00685906	
0.000515	0.0093898	
0.00052	0.0117552	
0.000525	0.0139471	
0.00053	0.0160637	
0.000535	0.0182206	
0.00054	0.0204447	
0.000545	0.0226555	
0.00055	0.0247528	
0.000555	0.0267237	
0.00056	0.0286132	
0.000565	0.030407	
0.00057	0.0321006	
0.000575	0.0336954	
0.00058	0.0351972	
0.000585	0.0367093	
0.00059	0.0382518	
0.000595	0.0397888	
0.0006	0.0413446	
0.000605	0.0428867	
0.00061	0.0443945	
0.000615	0.0459033	
0.00062	0.0473889	
0.000625	0.0487891	
0.00063	0.0500667	
0.000635	0.0512505	
0.00064	0.0524116	
0.000645	0.0535503	
0.00065	0.0546205	
0.000655	0.0555948	
0.00066	0.0565073	
0.000665	0.0574311	
0.00067	0.058366	
0.000675	0.0593117	
0.00068	0.0603148	
0.000685	0.0613559	
0.00069	0.0623251	
0.000695	0.0631537	
0.0007	0.0639454	
0.000705	0.0647704	
0.00071	0.0655309	
0.000715	0.0661652	
0.00072	0.0666864	
0.000725	0.0671558	
0.00073	0.0676641	
0.000735	0.0682214	
0.00074	0.0688322	
0.000745	0.0695445	
0.00075	0.0703375	
0.000755	0.0711463	
0.00076	0.0718796	
0.000765	0.072481	
0.00077	0.0730145	
0.000775	0.0735256	
0.00078	0.0739976	
0.000785	0.0743741	
0.00079	0.0746222	
0.000795	0.074869	
0.0008	0.0752459	
0.000805	0.0756908	
0.00081	0.0761119	
0.000815	0.0764973	
0.00082	0.0767936	
0.000825	0.0769694	
0.00083	0.0771051	
0.000835	0.0772554	
0.00084	0.0774083	
0.000845	0.0775556	
0.00085	0.0776448	
0.000855	0.0776439	
0.00086	0.0775835	
0.000865	0.0775345	
0.00087	0.0774952	
0.000875	0.077369	
0.00088	0.0771917	
0.000885	0.0770364	
0.00089	0.0769031	
0.000895	0.0767905	
0.0009	0.076697	
0.000905	0.0766204	
0.00091	0.0765111	
0.000915	0.0762903	
0.00092	0.0759589	
0.000925	0.0755703	
0.00093	0.0751623	
0.000935	0.0747609	
0.00094	0.0743827	
0.000945	0.0739902	
0.00095	0.0735118	
0.000955	0.0729519	
0.00096	0.0723646	
0.000965	0.0717871	
0.00097	0.0712434	
0.000975	0.0707001	
0.00098	0.0700878	
0.000985	0.0694113	
0.00099	0.0687245	
0.000995	0.0680159	
0.001	0.0672314	
0.001005	0.0663863	
0.00101	0.0655889	
0.001015	0.0649081	
0.00102	0.0642889	
0.001025	0.063692	
0.00103	0.0630906	
0.001035	0.0624195	
0.00104	0.0616867	
0.001045	0.0609003	
0.00105	0.0600208	
0.001055	0.0590739	
0.00106	0.0581273	
0.001065	0.0571782	
0.00107	0.0561773	
0.001075	0.0552845	
0.00108	0.054648	
0.001085	0.0540204	
0.00109	0.0531906	
0.001095	0.0522192	
0.0011	0.0512005	
0.001105	0.0501512	
0.00111	0.0490362	
0.001115	0.0478832	
0.00112	0.0467596	
0.001125	0.045661	
0.00113	0.0445834	
0.001135	0.0435705	
0.00114	0.0425531	
0.001145	0.0414383	
0.00115	0.0402645	
0.001155	0.0391073	
0.00116	0.0380157	
0.001165	0.0370191	
0.00117	0.0360846	
0.001175	0.0351403	
0.00118	0.0341866	
0.001185	0.0330817	
0.00119	0.0316917	
0.001195	0.0302745	
0.0012	0.029049	
0.001205	0.0279603	
0.00121	0.0269183	
0.001215	0.0259088	
0.00122	0.0249685	
0.001225	0.0241182	
0.00123	0.0233676	
0.001235	0.0226706	
0.00124	0.0219469	
0.001245	0.0211922	
0.00125	0.0204053	
0.001255	0.0195394	
0.00126	0.0186146	
0.001265	0.0176949	
0.00127	0.016822	
0.001275	0.0160212	
0.00128	0.0152584	
0.001285	0.0145091	
0.00129	0.0138041	
0.001295	0.0130667	
0.0013	0.0122001	
0.001305	0.0112419	
0.00131	0.0102685	
0.001315	0.0092836	
0.00132	0.00824268	
0.001325	0.00716649	
0.00133	0.00611796	
0.001335	0.00513725	
0.00134	0.00420011	
0.001345	0.00324095	
0.00135	0.00226511	
0.001355	0.00132441	
0.00136	0.00045139	
0.001365	-0.000383258	
0.00137	-0.00120066	
0.001375	-0.00196804	
0.00138	-0.0027612	
0.001385	-0.00362892	
0.00139	-0.00445723	
0.001395	-0.00517283	
0.0014	-0.00578028	
0.001405	-0.00633522	
0.00141	-0.00692437	
0.001415	-0.00755573	
0.00142	-0.00823261	
0.001425	-0.00895502	
0.00143	-0.00967328	
0.001435	-0.0103548	
0.00144	-0.0109799	
0.001445	-0.0115858	
0.00145	-0.0121979	
0.001455	-0.0128326	
0.00146	-0.0134998	
0.001465	-0.0141568	
0.00147	-0.0148236	
0.001475	-0.0154178	
0.00148	-0.0158409	
0.001485	-0.0162738	
0.00149	-0.0168828	
0.001495	-0.0176267	
0.0015	-0.0184243	
0.001505	-0.0192197	
0.00151	-0.0199759	
0.001515	-0.020718	
0.00152	-0.0215109	
0.001525	-0.0223473	
0.00153	-0.0231727	
0.001535	-0.023952	
0.00154	-0.0246639	
0.001545	-0.0252977	
0.00155	-0.0258501	
0.001555	-0.0263702	
0.00156	-0.0268919	
0.001565	-0.0273425	
0.00157	-0.0276774	
0.001575	-0.0279201	
0.00158	-0.028138	
0.001585	-0.0285196	
0.00159	-0.0291335	
0.001595	-0.0297765	
0.0016	-0.0303608	
0.001605	-0.0309263	
0.00161	-0.031405	
0.001615	-0.0317565	
0.00162	-0.0320548	
0.001625	-0.0323992	
0.00163	-0.0327575	
0.001635	-0.0330607	
0.00164	-0.033313	
0.001645	-0.03352	
0.00165	-0.0337348	
0.001655	-0.0339446	
0.00166	-0.0340936	
0.001665	-0.0342431	
0.00167	-0.0344332	
0.001675	-0.0346413	
0.00168	-0.0348513	
0.001685	-0.0350527	
0.00169	-0.0352388	
0.001695	-0.0354061	
0.0017	-0.0355055	
0.001705	-0.0355554	
0.00171	-0.0356655	
0.001715	-0.0357624	
0.00172	-0.0357511	
0.001725	-0.0357164	
0.00173	-0.035763	
0.001735	-0.0359086	
0.00174	-0.036065	
0.001745	-0.0361261	
0.00175	-0.0360739	
0.001755	-0.0359494	
0.00176	-0.0357833	
0.001765	-0.035645	
0.00177	-0.0355791	
0.001775	-0.0355167	
0.00178	-0.0352217	
0.001785	-0.0345972	
0.00179	-0.0339276	
0.001795	-0.033355	
0.0018	-0.0328259	
0.001805	-0.0323981	
0.00181	-0.0321048	
0.001815	-0.031914	
0.00182	-0.0318475	
0.001825	-0.0319135	
0.00183	-0.0319687	
0.001835	-0.0319191	
0.00184	-0.0318503	
0.001845	-0.0317246	
0.00185	-0.0313771	
0.001855	-0.0307572	
0.00186	-0.029892	
0.001865	-0.0288109	
0.00187	-0.0273058	
0.001875	-0.0250219	
0.00188	-0.0219999	
0.001885	-0.0185389	
0.00189	-0.0148572	
0.001895	-0.0111566	
0.0019	-0.00757095	
0.001905	-0.0040406	
0.00191	-0.000476003	
0.001915	0.00303766	
0.00192	0.00635154	
0.001925	0.0094245	
0.00193	0.0123359	
0.001935	0.0151456	
0.00194	0.0178029	
0.001945	0.0202342	
0.00195	0.0224488	
0.001955	0.0245585	
0.00196	0.0266418	
0.001965	0.0286568	
0.00197	0.0305313	
0.001975	0.0323197	
0.00198	0.0341569	
0.001985	0.0360344	
0.00199	0.0378021	
0.001995	0.0394138	
0.002	0.0409416	
0.002005	0.0423892	
0.00201	0.0437631	
0.002015	0.0450709	
0.00202	0.0462733	
0.002025	0.0473968	
0.00203	0.0485103	
0.002035	0.0496596	
0.00204	0.0508731	
0.002045	0.0521192	
0.00205	0.0533278	
0.002055	0.0544545	
0.00206	0.0555215	
0.002065	0.0565937	
0.00207	0.0576662	
0.002075	0.0586881	
0.00208	0.0596283	
0.002085	0.0604702	
0.00209	0.0612551	
0.002095	0.0620602	
0.0021	0.0629356	
0.002105	0.0638637	
0.00211	0.0647349	
0.002115	0.0654799	
0.00212	0.066154	
0.002125	0.0668446	
0.00213	0.0675608	
0.002135	0.0682602	
0.00214	0.0689153	
0.002145	0.0695578	
0.00215	0.0702091	
0.002155	0.0708354	
0.00216	0.0714156	
0.002165	0.071938	
0.00217	0.0723976	
0.002175	0.072794	
0.00218	0.0729874	
0.002185	0.0728951	
0.00219	0.0727616	
0.002195	0.0727497	
0.0022	0.0728661	
0.002205	0.0731091	
0.00221	0.0734242	
0.002215	0.0737718	
0.00222	0.0741244	
0.002225	0.0744637	
0.00223	0.0747782	
0.002235	0.0750138	
0.00224	0.0751388	
0.002245	0.0752325	
0.00225	0.0753011	
0.002255	0.0753024	
0.00226	0.0753067	
0.002265	0.0753605	
0.00227	0.0754442	
0.002275	0.0754962	
0.00228	0.0754774	
0.002285	0.0754126	
0.00229	0.0751781	
0.002295	0.0747002	
0.0023	0.0741793	
0.002305	0.07375	
0.00231	0.0733537	
0.002315	0.0729504	
0.00232	0.0726091	
0.002325	0.0723249	
0.00233	0.0720442	
0.002335	0.071779	
0.00234	0.0714891	
0.002345	0.0711492	
0.00235	0.0707922	
0.002355	0.0703934	
0.00236	0.0698908	
0.002365	0.069296	
0.00237	0.0686686	
0.002375	0.0680017	
0.00238	0.0672454	
0.002385	0.0664183	
0.00239	0.0655836	
0.002395	0.0647835	
0.0024	0.0639964	
0.002405	0.06316	
0.00241	0.0622357	
0.002415	0.0612496	
0.00242	0.0602693	
0.002425	0.0592918	
0.00243	0.0583147	
0.002435	0.0573366	
0.00244	0.0563091	
0.002445	0.0552975	
0.00245	0.0543919	
0.002455	0.0535989	
0.00246	0.0529178	
0.002465	0.0522474	
0.00247	0.0514734	
0.002475	0.05062	
0.00248	0.0497071	
0.002485	0.0487507	
0.00249	0.0477632	
0.002495	0.0467069	
0.0025	0.0456552	
0.002505	0.0447038	
0.00251	0.043816	
0.002515	0.0428695	
0.00252	0.041834	
0.002525	0.0408364	
0.00253	0.0399108	
0.002535	0.0389816	
0.00254	0.0380463	
0.002545	0.0371037	
0.00255	0.0361058	
0.002555	0.0350711	
0.00256	0.0340611	
0.002565	0.0330676	
0.00257	0.0320369	
0.002575	0.0309829	
0.00258	0.0299634	
0.002585	0.0289673	
0.00259	0.0279387	
0.002595	0.0268897	
0.0026	0.025877	
0.002605	0.0248885	
0.00261	0.0238677	
0.002615	0.0228263	
0.00262	0.0218206	
0.002625	0.0208385	
0.00263	0.0198233	
0.002635	0.0187867	
0.00264	0.0177851	
0.002645	0.016854	
0.00265	0.0160133	
0.002655	0.0152245	
0.00266	0.0143646	
0.002665	0.0133559	
0.00267	0.0122968	
0.002675	0.0113021	
0.00268	0.0103493	
0.002685	0.00937427	
0.00269	0.00838304	
0.002695	0.00742806	
0.0027	0.00654214	
0.002705	0.00574366	
0.00271	0.00494552	
0.002715	0.00409029	
0.00272	0.00328541	
0.002725	0.00255178	
0.00273	0.00185231	
0.002735	0.00120843	
0.00274	0.000584138	
0.002745	-4.5257E-5	
0.00275	-0.000695781	
0.002755	-0.00142454	
0.00276	-0.00221794	
0.002765	-0.00306399	
0.00277	-0.00399979	
0.002775	-0.00499805	
0.00278	-0.0060378	
0.002785	-0.00710328	
0.00279	-0.00804026	
0.002795	-0.00880065	
0.0028	-0.00950371	
0.002805	-0.0101833	
0.00281	-0.0108627	
0.002815	-0.0115575	
0.00282	-0.0122295	
0.002825	-0.0128547	
0.00283	-0.0134671	
0.002835	-0.0140895	
0.00284	-0.0146891	
0.002845	-0.0152929	
0.00285	-0.0159184	
0.002855	-0.0165286	
0.00286	-0.0171474	
0.002865	-0.0177902	
0.00287	-0.0184183	
0.002875	-0.0190546	
0.00288	-0.0197613	
0.002885	-0.0205761	
0.00289	-0.0214711	
0.002895	-0.0223766	
0.0029	-0.0232463	
0.002905	-0.0240513	
0.00291	-0.0247754	
0.002915	-0.025412	
0.00292	-0.0259609	
0.002925	-0.0264258	
0.00293	-0.0268135	
0.002935	-0.0271794	
0.00294	-0.0276088	
0.002945	-0.0281071	
0.00295	-0.0286275	
0.002955	-0.0290901	
0.00296	-0.0294454	
0.002965	-0.029808	
0.00297	-0.030301	
0.002975	-0.0308566	
0.00298	-0.0313797	
0.002985	-0.0318566	
0.00299	-0.0322806	
0.002995	-0.0327445	
0.003	-0.0333081	
0.003005	-0.033863	
0.00301	-0.0343386	
0.003015	-0.0347393	
0.00302	-0.0350716	
0.003025	-0.0353433	
0.00303	-0.035562	
0.003035	-0.0357354	
0.00304	-0.0358709	
0.003045	-0.0359749	
0.00305	-0.0360056	
0.003055	-0.0358441	
0.00306	-0.0354207	
0.003065	-0.0347973	
0.00307	-0.0339763	
0.003075	-0.0328262	
0.00308	-0.0313234	
0.003085	-0.0296116	
0.00309	-0.0278429	
0.003095	-0.0260254	
0.0031	-0.0240714	
0.003105	-0.0220248	
0.00311	-0.020014	
0.003115	-0.0180743	
0.00312	-0.0161781	
0.003125	-0.0143529	
0.00313	-0.0126607	
0.003135	-0.0110888	
0.00314	-0.00952784	
0.003145	-0.00743006	
0.00315	-0.00407927	
0.003155	0.000414545	
0.00316	0.005497	
0.003165	0.0108222	
0.00317	0.0161032	
0.003175	0.0211053	
0.00318	0.0257343	
0.003185	0.0299936	
0.00319	0.0339027	
0.003195	0.037491	
0.0032	0.0407457	
0.003205	0.043674	
0.00321	0.0463437	
0.003215	0.0487641	
0.00322	0.0509056	
0.003225	0.0528096	
0.00323	0.0545619	
0.003235	0.0561789	
0.00324	0.0576302	
0.003245	0.0589511	
0.00325	0.0602187	
0.003255	0.0614386	
0.00326	0.0625695	
0.003265	0.0636357	
0.00327	0.0647514	
0.003275	0.065942	
0.00328	0.0671258	
0.003285	0.0683441	
0.00329	0.0696226	
0.003295	0.0708328	
0.0033	0.0719408	
0.003305	0.073024	
0.00331	0.0740871	
0.003315	0.0750868	
0.00332	0.0759973	
0.003325	0.0768535	
0.00333	0.0777285	
0.003335	0.078622	
0.00334	0.0794855	
0.003345	0.0803358	
0.00335	0.0812323	
0.003355	0.0821645	
0.00336	0.083076	
0.003365	0.0839784	
0.00337	0.0849271	
0.003375	0.085909	
0.00338	0.0868664	
0.003385	0.0877623	
0.00339	0.0886228	
0.003395	0.0894669	
0.0034	0.0902126	
0.003405	0.0908583	
0.00341	0.0915025	
0.003415	0.0922103	
0.00342	0.0930216	
0.003425	0.0939104	
0.00343	0.0948082	
0.003435	0.0956695	
0.00344	0.096466	
0.003445	0.0971821	
0.00345	0.0978113	
0.003455	0.0984009	
0.00346	0.0989842	
0.003465	0.0994881	
0.00347	0.0999159	
0.003475	0.100368	
0.00348	0.100863	
0.003485	0.101362	
0.00349	0.101841	
0.003495	0.102236	
0.0035	0.102509	
0.003505	0.102737	
0.00351	0.102972	
0.003515	0.103153	
0.00352	0.103242	
0.003525	0.103313	
0.00353	0.103418	
0.003535	0.103539	
0.00354	0.103665	
0.003545	0.103789	
0.00355	0.103858	
0.003555	0.10384	
0.00356	0.103765	
0.003565	0.103656	
0.00357	0.103578	
0.003575	0.103524	
0.00358	0.103393	
0.003585	0.103169	
0.00359	0.102896	
0.003595	0.102603	
0.0036	0.10231	
0.003605	0.102031	
0.00361	0.101775	
0.003615	0.101546	
0.00362	0.101346	
0.003625	0.101174	
0.00363	0.100981	
0.003635	0.100689	
0.00364	0.100297	
0.003645	0.0998587	
0.00365	0.0994097	
0.003655	0.0989753	
0.00366	0.0985234	
0.003665	0.0980338	
0.00367	0.0975426	
0.003675	0.0970259	
0.00368	0.0964694	
0.003685	0.0959605	
0.00369	0.0955546	
0.003695	0.0951882	
0.0037	0.0947702	
0.003705	0.0942903	
0.00371	0.0937924	
0.003715	0.0932586	
0.00372	0.0926788	
0.003725	0.0920962	
0.00373	0.0914917	
0.003735	0.0908062	
0.00374	0.0900523	
0.003745	0.089289	
0.00375	0.0885079	
0.003755	0.0876571	
0.00376	0.086753	
0.003765	0.0858089	
0.00377	0.0847881	
0.003775	0.0837175	
0.00378	0.0826646	
0.003785	0.0816732	
0.00379	0.0807218	
0.003795	0.0797466	
0.0038	0.0787543	
0.003805	0.0777977	
0.00381	0.0768623	
0.003815	0.0758901	
0.00382	0.0748921	
0.003825	0.0738767	
0.00383	0.0728028	
0.003835	0.0717411	
0.00384	0.0707853	
0.003845	0.0698493	
0.00385	0.0688281	
0.003855	0.067704	
0.00386	0.0665176	
0.003865	0.0653463	
0.00387	0.0642404	
0.003875	0.0632298	
0.00388	0.0622348	
0.003885	0.0611546	
0.00389	0.0600217	
0.003895	0.0589077	
0.0039	0.0578589	
0.003905	0.056855	
0.00391	0.0558333	
0.003915	0.0548005	
0.00392	0.0537618	
0.003925	0.0526732	
0.00393	0.0515081	
0.003935	0.0502527	
0.00394	0.048902	
0.003945	0.0474572	
0.00395	0.0460189	
0.003955	0.0447002	
0.00396	0.0434754	
0.003965	0.0422753	
0.00397	0.0411006	
0.003975	0.0399984	
0.00398	0.0389485	
0.003985	0.0379352	
0.00399	0.0369464	
0.003995	0.0359255	
0.004	0.0348842	
0.004005	0.0338311	
0.00401	0.032725	
0.004015	0.0315888	
0.00402	0.0304864	
0.004025	0.0294584	
0.00403	0.0284806	
0.004035	0.0274871	
0.00404	0.0264827	
0.004045	0.0255186	
0.00405	0.0245791	
0.004055	0.0236052	
0.00406	0.0226072	
0.004065	0.0216404	
0.00407	0.0206925	
0.004075	0.0197067	
0.00408	0.0186951	
0.004085	0.0177143	
0.00409	0.0167527	
0.004095	0.0157541	
0.0041	0.0147783	
0.004105	0.0139114	
0.00411	0.0131096	
0.004115	0.0123412	
0.00412	0.0115835	
0.004125	0.0107738	
0.00413	0.00992049	
0.004135	0.00907878	
0.00414	0.00823701	
0.004145	0.00733994	
0.00415	0.0064013	
0.004155	0.00547964	
0.00416	0.00461278	
0.004165	0.00377551	
0.00417	0.00290229	
0.004175	0.00199912	
0.00418	0.00111893	
0.004185	0.000295512	
0.00419	-0.000499054	
0.004195	-0.00133209	
0.0042	-0.00219862	
0.004205	-0.0030938	
0.00421	-0.00401305	
0.004215	-0.00485716	
0.00422	-0.0056118	
0.004225	-0.00636684	
0.00423	-0.00713395	
0.004235	-0.00787275	
0.00424	-0.00860547	
0.004245	-0.00939459	
0.00425	-0.0102311	
0.004255	-0.0110593	
0.00426	-0.0118429	
0.004265	-0.0126075	
0.00427	-0.0134185	
0.004275	-0.0142693	
0.00428	-0.0150585	
0.004285	-0.0157223	
0.00429	-0.0163195	
0.004295	-0.0169396	
0.0043	-0.017593	
0.004305	-0.01819	
0.00431	-0.0187215	
0.004315	-0.0192798	
0.00432	-0.0198769	
0.004325	-0.0204712	
0.00433	-0.0210358	
0.004335	-0.0216014	
0.00434	-0.0222361	
0.004345	-0.0229339	
0.00435	-0.0236402	
0.004355	-0.0243188	
0.00436	-0.024947	
0.004365	-0.0255122	
0.00437	-0.0260093	
0.004375	-0.0264378	
0.00438	-0.0268008	
0.004385	-0.0271036	
0.00439	-0.0274474	
0.004395	-0.0279445	
0.0044	-0.0284717	
0.004405	-0.0288512	
0.00441	-0.0291153	
0.004415	-0.029386	
0.00442	-0.0296957	
0.004425	-0.0300165	
0.00443	-0.0303294	
0.004435	-0.0306224	
0.00444	-0.0308408	
0.004445	-0.0309521	
0.00445	-0.0310352	
0.004455	-0.0311432	
0.00446	-0.0313101	
0.004465	-0.0316029	
0.00447	-0.031965	
0.004475	-0.0323081	
0.00448	-0.0326699	
0.004485	-0.0330271	
0.00449	-0.0332691	
0.004495	-0.0333762	
0.0045	-0.0333419	
0.004505	-0.0331683	
0.00451	-0.0330062	
0.004515	-0.0329544	
0.00452	-0.0329302	
0.004525	-0.0328779	
0.00453	-0.0328095	
0.004535	-0.0327337	
0.00454	-0.0326566	
0.004545	-0.0325824	
0.00455	-0.0325135	
0.004555	-0.0324514	
0.00456	-0.0323967	
0.004565	-0.0323494	
0.00457	-0.0323094	
0.004575	-0.032276	
0.00458	-0.0322009	
0.004585	-0.0320545	
0.00459	-0.0319154	
0.004595	-0.0317878	
0.0046	-0.0315787	
0.004605	-0.0312782	
0.00461	-0.0309317	
0.004615	-0.0305712	
0.00462	-0.0302186	
0.004625	-0.0298403	
0.00463	-0.0293203	
0.004635	-0.0285889	
0.00464	-0.02742	
0.004645	-0.0254474	
0.00465	-0.0227531	
0.004655	-0.0196628	
0.00466	-0.0163149	
0.004665	-0.0128129	
0.00467	-0.00932751	
0.004675	-0.00597028	
0.00468	-0.00271377	
0.004685	0.000464912	
0.00469	0.00353701	
0.004695	0.00658367	
0.0047	0.00961206	
0.004705	0.0124376	
0.00471	0.0149958	
0.004715	0.0173518	
0.00472	0.0196057	
0.004725	0.0218282	
0.00473	0.0239724	
0.004735	0.0260112	
0.00474	0.027979	
0.004745	0.0299021	
0.00475	0.0317998	
0.004755	0.0336385	
0.00476	0.0353514	
0.004765	0.0369003	
0.00477	0.0383154	
0.004775	0.0396703	
0.00478	0.0410166	
0.004785	0.0423886	
0.00479	0.0437601	
0.004795	0.0451141	
0.0048	0.0464875	
0.004805	0.0479988	
0.00481	0.0496723	
0.004815	0.0512784	
0.00482	0.0527166	
0.004825	0.0540237	
0.00483	0.0551824	
0.004835	0.056236	
0.00484	0.0572181	
0.004845	0.0581065	
0.00485	0.0589387	
0.004855	0.059742	
0.00486	0.0604883	
0.004865	0.0612092	
0.00487	0.0619743	
0.004875	0.06278	
0.00488	0.0635742	
0.004885	0.0643234	
0.00489	0.0650074	
0.004895	0.0656161	
0.0049	0.0661464	
0.004905	0.0666474	
0.00491	0.0672005	
0.004915	0.0678092	
0.00492	0.068426	
0.004925	0.0690188	
0.00493	0.0695677	
0.004935	0.0700618	
0.00494	0.070544	
0.004945	0.0710429	
0.00495	0.0714818	
0.004955	0.0718128	
0.00496	0.0721045	
0.004965	0.0724516	
0.00497	0.0728664	
0.004975	0.0733062	
0.00498	0.0737416	
0.004985	0.0741536	
0.00499	0.0744831	
0.004995	0.0746951	
0.005	0.0749146	
0.005005	0.0751763	
0.00501	0.0753584	
0.005015	0.0754317	
0.00502	0.07543	
0.005025	0.0753788	
0.00503	0.0752498	
0.005035	0.0750282	
0.00504	0.074756	
0.005045	0.0744633	
