Time - Plot 0	Amplitude - Plot 0	
0	0.0123663	
5E-6	0.0148481	
1E-5	0.0172082	
1.5E-5	0.0194716	
2E-5	0.0216116	
2.5E-5	0.0236642	
3E-5	0.0256096	
3.5E-5	0.0274398	
4E-5	0.0292025	
4.5E-5	0.0309325	
5E-5	0.0327017	
5.5E-5	0.0345081	
6E-5	0.0362537	
6.5E-5	0.037924	
7E-5	0.0395133	
7.5E-5	0.0410216	
8E-5	0.0425476	
8.5E-5	0.0441559	
9E-5	0.0457898	
9.5E-5	0.0473633	
0.0001	0.0488701	
0.000105	0.0503568	
0.00011	0.0518074	
0.000115	0.0531656	
0.00012	0.0544461	
0.000125	0.0556625	
0.00013	0.0567789	
0.000135	0.0578243	
0.00014	0.0588684	
0.000145	0.0599098	
0.00015	0.0609002	
0.000155	0.0618576	
0.00016	0.0627956	
0.000165	0.0637239	
0.00017	0.064697	
0.000175	0.0657011	
0.00018	0.0666782	
0.000185	0.0675913	
0.00019	0.0684189	
0.000195	0.0691511	
0.0002	0.0698333	
0.000205	0.0705453	
0.00021	0.0712908	
0.000215	0.0720231	
0.00022	0.0727121	
0.000225	0.07334	
0.00023	0.0739454	
0.000235	0.0745549	
0.00024	0.0751382	
0.000245	0.0756767	
0.00025	0.0761602	
0.000255	0.0765846	
0.00026	0.0769974	
0.000265	0.0774306	
0.00027	0.0778092	
0.000275	0.078134	
0.00028	0.0784554	
0.000285	0.0787594	
0.00029	0.0790375	
0.000295	0.0792854	
0.0003	0.0795492	
0.000305	0.0798586	
0.00031	0.0801833	
0.000315	0.0805028	
0.00032	0.0807563	
0.000325	0.0809066	
0.00033	0.0809819	
0.000335	0.0810041	
0.00034	0.0809903	
0.000345	0.0809533	
0.00035	0.0808553	
0.000355	0.0806742	
0.00036	0.0804469	
0.000365	0.0801998	
0.00037	0.0799514	
0.000375	0.0796663	
0.00038	0.0793705	
0.000385	0.0791767	
0.00039	0.0790594	
0.000395	0.0789504	
0.0004	0.0788522	
0.000405	0.0787181	
0.00041	0.0785192	
0.000415	0.078287	
0.00042	0.0779962	
0.000425	0.0776331	
0.00043	0.0772394	
0.000435	0.0767967	
0.00044	0.076295	
0.000445	0.0757782	
0.00045	0.0752283	
0.000455	0.0745876	
0.00046	0.0739172	
0.000465	0.0733066	
0.00047	0.0727167	
0.000475	0.0720733	
0.00048	0.0713775	
0.000485	0.0706801	
0.00049	0.069967	
0.000495	0.0692299	
0.0005	0.0684641	
0.000505	0.0676683	
0.00051	0.0668902	
0.000515	0.0661606	
0.00052	0.0654974	
0.000525	0.064862	
0.00053	0.0642273	
0.000535	0.0636232	
0.00054	0.0630202	
0.000545	0.0623514	
0.00055	0.0616234	
0.000555	0.0608907	
0.00056	0.0601421	
0.000565	0.0591331	
0.00057	0.057715	
0.000575	0.0561893	
0.00058	0.0548074	
0.000585	0.0535857	
0.00059	0.0524799	
0.000595	0.0514077	
0.0006	0.0503608	
0.000605	0.0494277	
0.00061	0.0486613	
0.000615	0.0479935	
0.00062	0.0473272	
0.000625	0.0465984	
0.00063	0.0458152	
0.000635	0.0450334	
0.00064	0.0442893	
0.000645	0.0435578	
0.00065	0.0427741	
0.000655	0.041898	
0.00066	0.0409073	
0.000665	0.0398404	
0.00067	0.0387738	
0.000675	0.0377577	
0.00068	0.036823	
0.000685	0.0359387	
0.00069	0.0350344	
0.000695	0.034112	
0.0007	0.0331739	
0.000705	0.0322223	
0.00071	0.0313067	
0.000715	0.0304106	
0.00072	0.0294748	
0.000725	0.0284619	
0.00073	0.0273986	
0.000735	0.0263523	
0.00074	0.0253668	
0.000745	0.0244679	
0.00075	0.0236686	
0.000755	0.0229254	
0.00076	0.0221591	
0.000765	0.0214138	
0.00077	0.0207653	
0.000775	0.0201636	
0.00078	0.0195263	
0.000785	0.0188004	
0.00079	0.0180031	
0.000795	0.0171487	
0.0008	0.0162021	
0.000805	0.015192	
0.00081	0.0142352	
0.000815	0.0134064	
0.00082	0.0126062	
0.000825	0.0117199	
0.00083	0.010819	
0.000835	0.00999843	
0.00084	0.00922218	
0.000845	0.00841679	
0.00085	0.0075352	
0.000855	0.00659753	
0.00086	0.00566724	
0.000865	0.00478581	
0.00087	0.00407335	
0.000875	0.00355355	
0.00088	0.00299521	
0.000885	0.00229526	
0.00089	0.00153506	
0.000895	0.000771075	
0.0009	-6.79901E-6	
0.000905	-0.000852111	
0.00091	-0.00174944	
0.000915	-0.00263863	
0.00092	-0.00343286	
0.000925	-0.00407937	
0.00093	-0.00464545	
0.000935	-0.00517925	
0.00094	-0.00571406	
0.000945	-0.00627178	
0.00095	-0.00681822	
0.000955	-0.00737891	
0.00096	-0.00797002	
0.000965	-0.00855323	
0.00097	-0.00915117	
0.000975	-0.00977809	
0.00098	-0.0103945	
0.000985	-0.0110222	
0.00099	-0.0116754	
0.000995	-0.0123144	
0.001	-0.0129139	
0.001005	-0.0134589	
0.00101	-0.0139422	
0.001015	-0.0144096	
0.00102	-0.0148918	
0.001025	-0.0153611	
0.00103	-0.0158471	
0.001035	-0.0163687	
0.00104	-0.0168892	
0.001045	-0.0173842	
0.00105	-0.0178391	
0.001055	-0.0182935	
0.00106	-0.0187737	
0.001065	-0.0192005	
0.00107	-0.0195721	
0.001075	-0.0199847	
0.00108	-0.0204523	
0.001085	-0.0208866	
0.00109	-0.0212309	
0.001095	-0.021547	
0.0011	-0.0218772	
0.001105	-0.022201	
0.00111	-0.0225052	
0.001115	-0.0228298	
0.00112	-0.0231999	
0.001125	-0.0235351	
0.00113	-0.0237837	
0.001135	-0.0240111	
0.00114	-0.0243089	
0.001145	-0.0246389	
0.00115	-0.024927	
0.001155	-0.0252215	
0.00116	-0.0255537	
0.001165	-0.0258951	
0.00117	-0.0262264	
0.001175	-0.0265354	
0.00118	-0.0268151	
0.001185	-0.0270146	
0.00119	-0.0271044	
0.001195	-0.0271651	
0.0012	-0.0272512	
0.001205	-0.0273025	
0.00121	-0.0272334	
0.001215	-0.0270882	
0.00122	-0.0269946	
0.001225	-0.0269872	
0.00123	-0.0269893	
0.001235	-0.02695	
0.00124	-0.0268854	
0.001245	-0.0267596	
0.00125	-0.0265993	
0.001255	-0.026519	
0.00126	-0.0264953	
0.001265	-0.0264148	
0.00127	-0.0262533	
0.001275	-0.0260459	
0.00128	-0.0258656	
0.001285	-0.0257593	
0.00129	-0.0256117	
0.001295	-0.0253487	
0.0013	-0.0250698	
0.001305	-0.0248409	
0.00131	-0.0246084	
0.001315	-0.024337	
0.00132	-0.0241003	
0.001325	-0.0238976	
0.00133	-0.0236319	
0.001335	-0.0232422	
0.00134	-0.022694	
0.001345	-0.0219722	
0.00135	-0.0210275	
0.001355	-0.0196478	
0.00136	-0.0175711	
0.001365	-0.0148478	
0.00137	-0.0117321	
0.001375	-0.00840978	
0.00138	-0.00501338	
0.001385	-0.00153863	
0.00139	0.00201358	
0.001395	0.00525871	
0.0014	0.00776761	
0.001405	0.00962486	
0.00141	0.0111072	
0.001415	0.0123674	
0.00142	0.013564	
0.001425	0.0148048	
0.00143	0.016111	
0.001435	0.0175412	
0.00144	0.0191282	
0.001445	0.0208385	
0.00145	0.0226443	
0.001455	0.0244752	
0.00146	0.026236	
0.001465	0.0279149	
0.00147	0.0295555	
0.001475	0.0311406	
0.00148	0.0326619	
0.001485	0.0341641	
0.00149	0.0356778	
0.001495	0.0372225	
0.0015	0.0388097	
0.001505	0.0404449	
0.00151	0.0421295	
0.001515	0.043862	
0.00152	0.0455918	
0.001525	0.0472379	
0.00153	0.0487985	
0.001535	0.050324	
0.00154	0.0518017	
0.001545	0.0531781	
0.00155	0.0544701	
0.001555	0.0557879	
0.00156	0.0571554	
0.001565	0.0584436	
0.00157	0.059571	
0.001575	0.0605865	
0.00158	0.0615754	
0.001585	0.0625474	
0.00159	0.0634624	
0.001595	0.064344	
0.0016	0.0652569	
0.001605	0.0662425	
0.00161	0.0672768	
0.001615	0.0682468	
0.00162	0.069081	
0.001625	0.0698337	
0.00163	0.0705922	
0.001635	0.0713662	
0.00164	0.0721137	
0.001645	0.0728084	
0.00165	0.0734355	
0.001655	0.0739884	
0.00166	0.0744661	
0.001665	0.0749192	
0.00167	0.0754298	
0.001675	0.0760016	
0.00168	0.0766343	
0.001685	0.0773247	
0.00169	0.077973	
0.001695	0.0785154	
0.0017	0.0790097	
0.001705	0.0794966	
0.00171	0.079908	
0.001715	0.0802501	
0.00172	0.0806255	
0.001725	0.0810051	
0.00173	0.0812743	
0.001735	0.0814581	
0.00174	0.0816244	
0.001745	0.0817238	
0.00175	0.0817268	
0.001755	0.0816661	
0.00176	0.0815663	
0.001765	0.0814455	
0.00177	0.0813164	
0.001775	0.0811881	
0.00178	0.0810188	
0.001785	0.0807353	
0.00179	0.0803901	
0.001795	0.0800679	
0.0018	0.0797763	
0.001805	0.0795185	
0.00181	0.0792477	
0.001815	0.0789336	
0.00182	0.0786058	
0.001825	0.078237	
0.00183	0.077811	
0.001835	0.077415	
0.00184	0.077105	
0.001845	0.0768189	
0.00185	0.076467	
0.001855	0.0760408	
0.00186	0.0755382	
0.001865	0.074914	
0.00187	0.0741916	
0.001875	0.0734386	
0.00188	0.072701	
0.001885	0.0720086	
0.00189	0.0713785	
0.001895	0.070772	
0.0019	0.0702571	
0.001905	0.0699221	
0.00191	0.0695789	
0.001915	0.069104	
0.00192	0.0685647	
0.001925	0.0679608	
0.00193	0.067248	
0.001935	0.0664494	
0.00194	0.0656321	
0.001945	0.0647935	
0.00195	0.0639331	
0.001955	0.063099	
0.00196	0.062274	
0.001965	0.0614467	
0.00197	0.0606569	
0.001975	0.0598817	
0.00198	0.0590576	
0.001985	0.0581929	
0.00199	0.0572946	
0.001995	0.0563217	
0.002	0.0553455	
0.002005	0.0544609	
0.00201	0.0535835	
0.002015	0.0525622	
0.00202	0.0514467	
0.002025	0.050417	
0.00203	0.0494926	
0.002035	0.0485862	
0.00204	0.0476395	
0.002045	0.046616	
0.00205	0.0454951	
0.002055	0.0443155	
0.00206	0.043153	
0.002065	0.0420092	
0.00207	0.0408843	
0.002075	0.0398251	
0.00208	0.0388118	
0.002085	0.037829	
0.00209	0.036913	
0.002095	0.0360842	
0.0021	0.0352572	
0.002105	0.0343277	
0.00211	0.0333272	
0.002115	0.0323271	
0.00212	0.0314222	
0.002125	0.0306703	
0.00213	0.0300074	
0.002135	0.0293394	
0.00214	0.0286521	
0.002145	0.0279371	
0.00215	0.0271426	
0.002155	0.0262856	
0.00216	0.0253805	
0.002165	0.0244389	
0.00217	0.0235654	
0.002175	0.022778	
0.00218	0.0219896	
0.002185	0.0211903	
0.00219	0.0204215	
0.002195	0.0197094	
0.0022	0.0190682	
0.002205	0.0184565	
0.00221	0.0177983	
0.002215	0.0170453	
0.00222	0.0161705	
0.002225	0.0152091	
0.00223	0.0142362	
0.002235	0.0133016	
0.00224	0.0124366	
0.002245	0.0116107	
0.00225	0.0107548	
0.002255	0.00987182	
0.00226	0.0090129	
0.002265	0.00821042	
0.00227	0.00743559	
0.002275	0.00662056	
0.00228	0.00577003	
0.002285	0.00493634	
0.00229	0.00415317	
0.002295	0.00334529	
0.0023	0.00241671	
0.002305	0.00145248	
0.00231	0.000557882	
0.002315	-0.000248494	
0.00232	-0.000958561	
0.002325	-0.00157154	
0.00233	-0.00213905	
0.002335	-0.00274482	
0.00234	-0.00339468	
0.002345	-0.00404288	
0.00235	-0.00465934	
0.002355	-0.0052257	
0.00236	-0.00573225	
0.002365	-0.00622293	
0.00237	-0.00677502	
0.002375	-0.00738902	
0.00238	-0.00796726	
0.002385	-0.00844704	
0.00239	-0.00888674	
0.002395	-0.00932676	
0.0024	-0.00974617	
0.002405	-0.0101797	
0.00241	-0.0106971	
0.002415	-0.0111027	
0.00242	-0.0112253	
0.002425	-0.0113456	
0.00243	-0.0116489	
0.002435	-0.0120585	
0.00244	-0.0125187	
0.002445	-0.0129907	
0.00245	-0.013448	
0.002455	-0.0138265	
0.00246	-0.0140876	
0.002465	-0.014354	
0.00247	-0.0147539	
0.002475	-0.0152705	
0.00248	-0.0158395	
0.002485	-0.0164162	
0.00249	-0.0169707	
0.002495	-0.0174844	
0.0025	-0.0179468	
0.002505	-0.0183536	
0.00251	-0.0187044	
0.002515	-0.0190017	
0.00252	-0.0192497	
0.002525	-0.019501	
0.00253	-0.0197902	
0.002535	-0.0200905	
0.00254	-0.0204317	
0.002545	-0.0208311	
0.00255	-0.02125	
0.002555	-0.021662	
0.00256	-0.0220499	
0.002565	-0.0224036	
0.00257	-0.0227181	
0.002575	-0.0230393	
0.00258	-0.0233972	
0.002585	-0.0237626	
0.00259	-0.0241154	
0.002595	-0.0244434	
0.0026	-0.0247395	
0.002605	-0.024953	
0.00261	-0.0250543	
0.002615	-0.025077	
0.00262	-0.0250467	
0.002625	-0.0252206	
0.00263	-0.0257586	
0.002635	-0.0263211	
0.00264	-0.0266829	
0.002645	-0.0268479	
0.00265	-0.0268751	
0.002655	-0.0268579	
0.00266	-0.0268122	
0.002665	-0.0267498	
0.00267	-0.0266318	
0.002675	-0.0264353	
0.00268	-0.0261962	
0.002685	-0.0259404	
0.00269	-0.0256856	
0.002695	-0.0254437	
0.0027	-0.0252215	
0.002705	-0.025023	
0.00271	-0.0248494	
0.002715	-0.0247005	
0.00272	-0.0245749	
0.002725	-0.0244706	
0.00273	-0.0243377	
0.002735	-0.0240972	
0.00274	-0.0237972	
0.002745	-0.0235196	
0.00275	-0.0232223	
0.002755	-0.0228312	
0.00276	-0.022349	
0.002765	-0.0218297	
0.00277	-0.0213105	
0.002775	-0.0208633	
0.00278	-0.0205324	
0.002785	-0.0201988	
0.00279	-0.0196889	
0.002795	-0.0189444	
0.0028	-0.0179853	
0.002805	-0.016835	
0.00281	-0.015518	
0.002815	-0.0140582	
0.00282	-0.0124784	
0.002825	-0.010799	
0.00283	-0.00899079	
0.002835	-0.00713564	
0.00284	-0.00538482	
0.002845	-0.00369053	
0.00285	-0.00197103	
0.002855	-0.000221183	
0.00286	0.0018462	
0.002865	0.00464313	
0.00287	0.00797893	
0.002875	0.0114172	
0.00288	0.0148554	
0.002885	0.0182737	
0.00289	0.0215646	
0.002895	0.0246159	
0.0029	0.0274124	
0.002905	0.0300038	
0.00291	0.0323848	
0.002915	0.0338966	
0.00292	0.0335754	
0.002925	0.0315854	
0.00293	0.028922	
0.002935	0.0262733	
0.00294	0.0238072	
0.002945	0.0216255	
0.00295	0.0198773	
0.002955	0.018545	
0.00296	0.0175975	
0.002965	0.0170912	
0.00297	0.0170423	
0.002975	0.0173924	
0.00298	0.018084	
0.002985	0.0190157	
0.00299	0.0200616	
0.002995	0.0211809	
0.003	0.0224382	
0.003005	0.0238696	
0.00301	0.0253958	
0.003015	0.0269596	
0.00302	0.0287121	
0.003025	0.0306962	
0.00303	0.0326441	
0.003035	0.0344285	
0.00304	0.0360682	
0.003045	0.0375349	
0.00305	0.0388182	
0.003055	0.0399674	
0.00306	0.041069	
0.003065	0.0421345	
0.00307	0.0431259	
0.003075	0.0440215	
0.00308	0.0448591	
0.003085	0.0456664	
0.00309	0.0464156	
0.003095	0.0471385	
0.0031	0.0478574	
0.003105	0.0485397	
0.00311	0.0492132	
0.003115	0.049944	
0.00312	0.0507256	
0.003125	0.0514562	
0.00313	0.052071	
0.003135	0.052628	
0.00314	0.0532156	
0.003145	0.0538431	
0.00315	0.0544673	
0.003155	0.0550597	
0.00316	0.0555556	
0.003165	0.0559644	
0.00317	0.0563916	
0.003175	0.0568582	
0.00318	0.0573287	
0.003185	0.0577795	
0.00319	0.0581485	
0.003195	0.0583986	
0.0032	0.0586059	
0.003205	0.0588228	
0.00321	0.0590358	
0.003215	0.0592361	
0.00322	0.059371	
0.003225	0.0594089	
0.00323	0.0594285	
0.003235	0.0596254	
0.00324	0.0600724	
0.003245	0.0605206	
0.00325	0.0607582	
0.003255	0.0607506	
0.00326	0.0605343	
0.003265	0.0601905	
0.00327	0.0597789	
0.003275	0.0592946	
0.00328	0.0587376	
0.003285	0.0582067	
0.00329	0.0577656	
0.003295	0.057357	
0.0033	0.0568942	
0.003305	0.0563698	
0.00331	0.0557823	
0.003315	0.0551333	
0.00332	0.054522	
0.003325	0.0539169	
0.00333	0.053202	
0.003335	0.0524485	
0.00334	0.0517526	
0.003345	0.0511277	
0.00335	0.0505317	
0.003355	0.0498877	
0.00336	0.0491951	
0.003365	0.0485032	
0.00337	0.0478444	
0.003375	0.0472387	
0.00338	0.0466966	
0.003385	0.0462221	
0.00339	0.0457671	
0.003395	0.0452513	
0.0034	0.0446724	
0.003405	0.0440316	
0.00341	0.0432854	
0.003415	0.0425049	
0.00342	0.0417862	
0.003425	0.0410472	
0.00343	0.0401872	
0.003435	0.0392406	
0.00344	0.0383291	
0.003445	0.0374839	
0.00345	0.0366273	
0.003455	0.0358037	
0.00346	0.0350409	
0.003465	0.034259	
0.00347	0.0334542	
0.003475	0.0326722	
0.00348	0.0319423	
0.003485	0.0312336	
0.00349	0.0304775	
0.003495	0.0296783	
0.0035	0.0288885	
0.003505	0.0281422	
0.00351	0.02746	
0.003515	0.0268522	
0.00352	0.0262747	
0.003525	0.0256495	
0.00353	0.0249748	
0.003535	0.0242518	
0.00354	0.0233887	
0.003545	0.0223788	
0.00355	0.0213675	
0.003555	0.0204507	
0.00356	0.0195919	
0.003565	0.018717	
0.00357	0.0178253	
0.003575	0.0169647	
0.00358	0.0161653	
0.003585	0.0154441	
0.00359	0.0148085	
0.003595	0.0142119	
0.0036	0.0135741	
0.003605	0.0128919	
0.00361	0.0122126	
0.003615	0.0115674	
0.00362	0.0109276	
0.003625	0.0102741	
0.00363	0.00959498	
0.003635	0.00897859	
0.00364	0.00857533	
0.003645	0.00818906	
0.00365	0.00759459	
0.003655	0.00684342	
0.00366	0.00602447	
0.003665	0.00519955	
0.00367	0.00440972	
0.003675	0.00368038	
0.00368	0.00302543	
0.003685	0.00240295	
0.00369	0.00173627	
0.003695	0.000976897	
0.0037	0.000144793	
0.003705	-0.000648374	
0.00371	-0.00142589	
0.003715	-0.00229892	
0.00372	-0.00314609	
0.003725	-0.00384108	
0.00373	-0.00445039	
0.003735	-0.00506946	
0.00374	-0.00576075	
0.003745	-0.0065145	
0.00375	-0.00727379	
0.003755	-0.00804835	
0.00376	-0.00889141	
0.003765	-0.00973976	
0.00377	-0.0104564	
0.003775	-0.0110523	
0.00378	-0.0116831	
0.003785	-0.012402	
0.00379	-0.013145	
0.003795	-0.0138689	
0.0038	-0.0144983	
0.003805	-0.0150356	
0.00381	-0.015582	
0.003815	-0.0161559	
0.00382	-0.0167209	
0.003825	-0.0172532	
0.00383	-0.0177389	
0.003835	-0.0181709	
0.00384	-0.0185469	
0.003845	-0.0188683	
0.00385	-0.0191386	
0.003855	-0.0193622	
0.00386	-0.0195921	
0.003865	-0.0199104	
0.00387	-0.0203194	
0.003875	-0.0207688	
0.00388	-0.0212237	
0.003885	-0.0216606	
0.00389	-0.022065	
0.003895	-0.0224765	
0.0039	-0.0229681	
0.003905	-0.0234894	
0.00391	-0.023958	
0.003915	-0.0244173	
0.00392	-0.0248962	
0.003925	-0.0253179	
0.00393	-0.0256344	
0.003935	-0.025819	
0.00394	-0.025908	
0.003945	-0.0260722	
0.00395	-0.0263258	
0.003955	-0.0265789	
0.00396	-0.0268197	
0.003965	-0.0270409	
0.00397	-0.0272388	
0.003975	-0.0274119	
0.00398	-0.0275605	
0.003985	-0.0276859	
0.00399	-0.0277902	
0.003995	-0.0278754	
0.004	-0.0279442	
0.004005	-0.0279989	
0.00401	-0.0280416	
0.004015	-0.0280745	
0.00402	-0.0280993	
0.004025	-0.0281176	
0.00403	-0.0281308	
0.004035	-0.0283301	
0.00404	-0.0288328	
0.004045	-0.0292741	
0.00405	-0.0294164	
0.004055	-0.0294024	
0.00406	-0.0293335	
0.004065	-0.0292316	
0.00407	-0.0291129	
0.004075	-0.0289886	
0.00408	-0.0288665	
0.004085	-0.0287517	
0.00409	-0.0286471	
0.004095	-0.0285067	
0.0041	-0.0282542	
0.004105	-0.0279397	
0.00411	-0.0276943	
0.004115	-0.0275536	
0.00412	-0.0274411	
0.004125	-0.0272574	
0.00413	-0.0271305	
0.004135	-0.0271897	
0.00414	-0.0272262	
0.004145	-0.0270558	
0.00415	-0.0266621	
0.004155	-0.0260921	
0.00416	-0.0254804	
0.004165	-0.0249177	
0.00417	-0.0243664	
0.004175	-0.0238012	
0.00418	-0.0232059	
0.004185	-0.0225714	
0.00419	-0.0219412	
0.004195	-0.021296	
0.0042	-0.0206239	
0.004205	-0.0200134	
0.00421	-0.0195199	
0.004215	-0.0190318	
0.00422	-0.0183803	
0.004225	-0.0174616	
0.00423	-0.0162677	
0.004235	-0.0149012	
0.00424	-0.0133905	
0.004245	-0.011666	
0.00425	-0.00964449	
0.004255	-0.00723747	
0.00426	-0.00450001	
0.004265	-0.00157906	
0.00427	0.00141977	
0.004275	0.00447073	
0.00428	0.00755435	
0.004285	0.0106087	
0.00429	0.0135945	
0.004295	0.0164888	
0.0043	0.019281	
0.004305	0.0219213	
0.00431	0.0243842	
0.004315	0.0267086	
0.00432	0.0289269	
0.004325	0.0310654	
0.00433	0.0331451	
0.004335	0.0353255	
0.00434	0.0377067	
0.004345	0.0400602	
0.00435	0.0421891	
0.004355	0.0440691	
0.00436	0.0456962	
0.004365	0.047127	
0.00437	0.0484084	
0.004375	0.0495305	
0.00438	0.0505897	
0.004385	0.0516999	
0.00439	0.0528387	
0.004395	0.0539425	
0.0044	0.0549711	
0.004405	0.0559014	
0.00441	0.0567705	
0.004415	0.0576531	
0.00442	0.058598	
0.004425	0.0595868	
0.00443	0.0605577	
0.004435	0.0615661	
0.00444	0.0626465	
0.004445	0.0637233	
0.00445	0.0647468	
0.004455	0.0656867	
0.00446	0.0665746	
0.004465	0.0674338	
0.00447	0.0682334	
0.004475	0.0689558	
0.00448	0.0695933	
0.004485	0.070192	
0.00449	0.0707845	
0.004495	0.0712973	
0.0045	0.0716858	
0.004505	0.072069	
0.00451	0.0725731	
0.004515	0.0731332	
0.00452	0.0736562	
0.004525	0.0741299	
0.00453	0.0746439	
0.004535	0.0753026	
0.00454	0.0760257	
0.004545	0.0766143	
0.00455	0.0769439	
0.004555	0.0771347	
0.00456	0.0773199	
0.004565	0.0774452	
0.00457	0.0775251	
0.004575	0.0776187	
0.00458	0.0776695	
0.004585	0.0776896	
0.00459	0.0777361	
0.004595	0.0777503	
0.0046	0.0777424	
0.004605	0.0778155	
0.00461	0.0779385	
0.004615	0.0779935	
0.00462	0.0779535	
0.004625	0.0779004	
0.00463	0.0778886	
0.004635	0.0778571	
0.00464	0.0777665	
0.004645	0.0776414	
0.00465	0.0774992	
0.004655	0.0773527	
0.00466	0.0771626	
0.004665	0.0768578	
0.00467	0.0764441	
0.004675	0.0759783	
0.00468	0.0755476	
0.004685	0.0752081	
0.00469	0.0748496	
0.004695	0.0744005	
0.0047	0.0739128	
0.004705	0.0734229	
0.00471	0.0729546	
0.004715	0.0724752	
0.00472	0.0719636	
0.004725	0.071455	
0.00473	0.0709248	
0.004735	0.0703105	
0.00474	0.0697173	
0.004745	0.069261	
0.00475	0.0688217	
0.004755	0.0682716	
0.00476	0.0675795	
0.004765	0.0667789	
0.00477	0.0659447	
0.004775	0.0651278	
0.00478	0.0643609	
0.004785	0.0636157	
0.00479	0.0628725	
0.004795	0.0621183	
0.0048	0.0612974	
0.004805	0.0604238	
0.00481	0.0595093	
0.004815	0.0585635	
0.00482	0.0575943	
0.004825	0.0565604	
0.00483	0.0554853	
0.004835	0.0541961	
0.00484	0.052589	
0.004845	0.0510386	
0.00485	0.0497889	
0.004855	0.0487967	
0.00486	0.0479736	
0.004865	0.0472534	
0.00487	0.0466351	
0.004875	0.0460658	
0.00488	0.0454605	
0.004885	0.0448127	
0.00489	0.0441199	
0.004895	0.0433827	
0.0049	0.0426986	
0.004905	0.0420818	
0.00491	0.0414436	
0.004915	0.0407739	
0.00492	0.0400676	
0.004925	0.0392754	
0.00493	0.0384166	
0.004935	0.037507	
0.00494	0.0365117	
0.004945	0.0354596	
0.00495	0.0344197	
0.004955	0.0334371	
0.00496	0.0325387	
0.004965	0.0316908	
0.00497	0.0308212	
0.004975	0.0299309	
0.00498	0.0290216	
0.004985	0.0280951	
0.00499	0.0272488	
0.004995	0.0264952	
0.005	0.0257435	
0.005005	0.0249809	
0.00501	0.0242473	
0.005015	0.0235674	
0.00502	0.0229077	
0.005025	0.0221498	
0.00503	0.0212679	
0.005035	0.0203935	
0.00504	0.0195655	
0.005045	0.0187596	
0.00505	0.0180065	
0.005055	0.0172762	
