Time - Plot 0	Amplitude - Plot 0	
0	0.0643411	
5E-6	0.0635722	
1E-5	0.0628154	
1.5E-5	0.0621024	
2E-5	0.0614046	
2.5E-5	0.0606546	
3E-5	0.0598582	
3.5E-5	0.0590213	
4E-5	0.0581023	
4.5E-5	0.0571725	
5E-5	0.0562796	
5.5E-5	0.0553582	
6E-5	0.0544617	
6.5E-5	0.0537189	
7E-5	0.0531127	
7.5E-5	0.0525301	
8E-5	0.0518956	
8.5E-5	0.0511618	
9E-5	0.0503497	
9.5E-5	0.0495244	
0.0001	0.0487294	
0.000105	0.0479444	
0.00011	0.0471082	
0.000115	0.0462776	
0.00012	0.0455377	
0.000125	0.0447974	
0.00013	0.0439493	
0.000135	0.0430226	
0.00014	0.0420406	
0.000145	0.0410208	
0.00015	0.0400244	
0.000155	0.0390431	
0.00016	0.0380706	
0.000165	0.0371498	
0.00017	0.0363067	
0.000175	0.0355072	
0.00018	0.0346792	
0.000185	0.033824	
0.00019	0.0329438	
0.000195	0.0320412	
0.0002	0.0311665	
0.000205	0.030304	
0.00021	0.0293954	
0.000215	0.0284517	
0.00022	0.0275296	
0.000225	0.0265703	
0.00023	0.0255366	
0.000235	0.0245505	
0.00024	0.0236422	
0.000245	0.0227333	
0.00025	0.0218193	
0.000255	0.0209452	
0.00026	0.0201388	
0.000265	0.0193676	
0.00027	0.0186086	
0.000275	0.0178935	
0.00028	0.0171936	
0.000285	0.0164419	
0.00029	0.0156439	
0.000295	0.0149007	
0.0003	0.0142288	
0.000305	0.0135406	
0.00031	0.0128267	
0.000315	0.0120821	
0.00032	0.0113049	
0.000325	0.0105429	
0.00033	0.00977959	
0.000335	0.00900387	
0.00034	0.00830422	
0.000345	0.00773535	
0.00035	0.00723208	
0.000355	0.0067008	
0.00036	0.00608111	
0.000365	0.00538489	
0.00037	0.00467116	
0.000375	0.00397962	
0.00038	0.00333544	
0.000385	0.00270541	
0.00039	0.00206697	
0.000395	0.00145319	
0.0004	0.000837155	
0.000405	0.000201241	
0.00041	-0.000417704	
0.000415	-0.00104372	
0.00042	-0.00169233	
0.000425	-0.00232515	
0.00043	-0.00301271	
0.000435	-0.0037989	
0.00044	-0.00456542	
0.000445	-0.00523516	
0.00045	-0.00580942	
0.000455	-0.00634111	
0.00046	-0.00691464	
0.000465	-0.00753617	
0.00047	-0.00815995	
0.000475	-0.00875572	
0.00048	-0.00930483	
0.000485	-0.00979721	
0.00049	-0.0102289	
0.000495	-0.0106002	
0.0005	-0.010914	
0.000505	-0.0112227	
0.00051	-0.0116084	
0.000515	-0.0120743	
0.00052	-0.0126185	
0.000525	-0.0132361	
0.00053	-0.0138254	
0.000535	-0.0143206	
0.00054	-0.0147303	
0.000545	-0.0150643	
0.00055	-0.0153801	
0.000555	-0.0157641	
0.00056	-0.0162224	
0.000565	-0.0166604	
0.00057	-0.0169693	
0.000575	-0.017131	
0.00058	-0.0171879	
0.000585	-0.0172205	
0.00059	-0.0173308	
0.000595	-0.0175344	
0.0006	-0.0177901	
0.000605	-0.0180679	
0.00061	-0.0183473	
0.000615	-0.0186144	
0.00062	-0.0188132	
0.000625	-0.0189102	
0.00063	-0.0189353	
0.000635	-0.0189119	
0.00064	-0.0189052	
0.000645	-0.0190048	
0.00065	-0.0192174	
0.000655	-0.0193993	
0.00066	-0.0194574	
0.000665	-0.0194785	
0.00067	-0.0195219	
0.000675	-0.0195779	
0.00068	-0.0196395	
0.000685	-0.0196544	
0.00069	-0.0195902	
0.000695	-0.0195245	
0.0007	-0.0195085	
0.000705	-0.0194783	
0.00071	-0.0193928	
0.000715	-0.0192748	
0.00072	-0.0190935	
0.000725	-0.018879	
0.00073	-0.0187477	
0.000735	-0.0187252	
0.00074	-0.0187754	
0.000745	-0.0188236	
0.00075	-0.0187732	
0.000755	-0.0186126	
0.00076	-0.0182443	
0.000765	-0.0174714	
0.00077	-0.016278	
0.000775	-0.0147212	
0.00078	-0.0128083	
0.000785	-0.0106085	
0.00079	-0.00822854	
0.000795	-0.00569969	
0.0008	-0.00323984	
0.000805	-0.00127458	
0.00081	8.14918E-5	
0.000815	0.000924218	
0.00082	0.00134108	
0.000825	0.00145743	
0.00083	0.00137015	
0.000835	0.00120026	
0.00084	0.000983936	
0.000845	0.000652162	
0.00085	0.000212422	
0.000855	-0.000182636	
0.00086	-0.000339406	
0.000865	-0.000189041	
0.00087	0.000299324	
0.000875	0.00117759	
0.00088	0.002414	
0.000885	0.00397068	
0.00089	0.00585504	
0.000895	0.0079614	
0.0009	0.010067	
0.000905	0.0120249	
0.00091	0.0137929	
0.000915	0.0150192	
0.00092	0.0162583	
0.000925	0.0183028	
0.00093	0.0198309	
0.000935	0.019853	
0.00094	0.0189285	
0.000945	0.0176138	
0.00095	0.0164368	
0.000955	0.0156914	
0.00096	0.0152184	
0.000965	0.0149472	
0.00097	0.0149647	
0.000975	0.0152666	
0.00098	0.0158845	
0.000985	0.0167765	
0.00099	0.0178546	
0.000995	0.019147	
0.001	0.0206146	
0.001005	0.022176	
0.00101	0.0238679	
0.001015	0.0257084	
0.00102	0.0276073	
0.001025	0.0294551	
0.00103	0.0312292	
0.001035	0.0329659	
0.00104	0.0346433	
0.001045	0.0362023	
0.00105	0.0376095	
0.001055	0.0389451	
0.00106	0.0403129	
0.001065	0.0416849	
0.00107	0.0430422	
0.001075	0.0443731	
0.00108	0.0456713	
0.001085	0.0469816	
0.00109	0.0482853	
0.001095	0.0495707	
0.0011	0.0508307	
0.001105	0.0520143	
0.00111	0.0531867	
0.001115	0.0543913	
0.00112	0.0555126	
0.001125	0.0564784	
0.00113	0.0572961	
0.001135	0.0580249	
0.00114	0.0587557	
0.001145	0.0595008	
0.00115	0.0602676	
0.001155	0.0611076	
0.00116	0.0620036	
0.001165	0.0628941	
0.00117	0.0637389	
0.001175	0.0645137	
0.00118	0.0652531	
0.001185	0.0660293	
0.00119	0.0667931	
0.001195	0.067465	
0.0012	0.0680445	
0.001205	0.0685358	
0.00121	0.0689931	
0.001215	0.069454	
0.00122	0.0698954	
0.001225	0.0703031	
0.00123	0.0706217	
0.001235	0.0708191	
0.00124	0.0709746	
0.001245	0.0711428	
0.00125	0.0713113	
0.001255	0.0715197	
0.00126	0.0717919	
0.001265	0.0720459	
0.00127	0.0721808	
0.001275	0.0721357	
0.00128	0.0710234	
0.001285	0.0674536	
0.00129	0.0616243	
0.001295	0.0548661	
0.0013	0.0481478	
0.001305	0.0420113	
0.00131	0.0366912	
0.001315	0.0322562	
0.00132	0.0287095	
0.001325	0.0259638	
0.00133	0.0238761	
0.001335	0.0223686	
0.00134	0.0214099	
0.001345	0.0209061	
0.00135	0.0207259	
0.001355	0.0208152	
0.00136	0.021173	
0.001365	0.0217385	
0.00137	0.0223666	
0.001375	0.0229588	
0.00138	0.0235468	
0.001385	0.0241042	
0.00139	0.0245201	
0.001395	0.0247754	
0.0014	0.0249128	
0.001405	0.0249659	
0.00141	0.0250084	
0.001415	0.0250896	
0.00142	0.0251923	
0.001425	0.025352	
0.00143	0.0255891	
0.001435	0.0258187	
0.00144	0.0259372	
0.001445	0.0259295	
0.00145	0.0258388	
0.001455	0.0256978	
0.00146	0.0255302	
0.001465	0.0255431	
0.00147	0.0258647	
0.001475	0.0261844	
0.00148	0.0262975	
0.001485	0.0262692	
0.00149	0.0261013	
0.001495	0.0257543	
0.0015	0.0252582	
0.001505	0.0246871	
0.00151	0.0241411	
0.001515	0.0236851	
0.00152	0.0232624	
0.001525	0.0228342	
0.00153	0.0224225	
0.001535	0.0220413	
0.00154	0.0216506	
0.001545	0.0211771	
0.00155	0.0206713	
0.001555	0.0203109	
0.00156	0.0201583	
0.001565	0.020055	
0.00157	0.0198464	
0.001575	0.0195308	
0.00158	0.0191595	
0.001585	0.018769	
0.00159	0.0183844	
0.001595	0.0180218	
0.0016	0.0176434	
0.001605	0.0172249	
0.00161	0.0167998	
0.001615	0.0163428	
0.00162	0.015839	
0.001625	0.0153281	
0.00163	0.0148366	
0.001635	0.0143813	
0.00164	0.0139713	
0.001645	0.013563	
0.00165	0.0131277	
0.001655	0.0126951	
0.00166	0.0122373	
0.001665	0.0117369	
0.00167	0.0111846	
0.001675	0.0105291	
0.00168	0.00978903	
0.001685	0.00902822	
0.00169	0.00828972	
0.001695	0.00760085	
0.0017	0.00697728	
0.001705	0.00637874	
0.00171	0.00577746	
0.001715	0.00525036	
0.00172	0.00474956	
0.001725	0.00414718	
0.00173	0.00350632	
0.001735	0.0028704	
0.00174	0.00222027	
0.001745	0.00163907	
0.00175	0.00117833	
0.001755	0.000818812	
0.00176	0.000495503	
0.001765	6.87547E-5	
0.00177	-0.000406012	
0.001775	-0.000747379	
0.00178	-0.00107971	
0.001785	-0.00153298	
0.00179	-0.00199701	
0.001795	-0.00239865	
0.0018	-0.0027877	
0.001805	-0.00324511	
0.00181	-0.0037735	
0.001815	-0.00432369	
0.00182	-0.00486224	
0.001825	-0.00536764	
0.00183	-0.00582728	
0.001835	-0.006235	
0.00184	-0.00663675	
0.001845	-0.00711063	
0.00185	-0.00765718	
0.001855	-0.00822581	
0.00186	-0.00882962	
0.001865	-0.00947562	
0.00187	-0.0100713	
0.001875	-0.0105582	
0.00188	-0.0109502	
0.001885	-0.0112612	
0.00189	-0.0115041	
0.001895	-0.0116905	
0.0019	-0.0118785	
0.001905	-0.0121061	
0.00191	-0.0123015	
0.001915	-0.0124189	
0.00192	-0.012527	
0.001925	-0.0127187	
0.00193	-0.0130041	
0.001935	-0.0133378	
0.00194	-0.0136876	
0.001945	-0.0140313	
0.00195	-0.0143549	
0.001955	-0.0146499	
0.00196	-0.014912	
0.001965	-0.0151401	
0.00197	-0.015335	
0.001975	-0.0154987	
0.00198	-0.0156818	
0.001985	-0.0159163	
0.00199	-0.0161263	
0.001995	-0.0163101	
0.002	-0.0165155	
0.002005	-0.0166779	
0.00201	-0.0168042	
0.002015	-0.0169959	
0.00202	-0.0172216	
0.002025	-0.0174115	
0.00203	-0.0176164	
0.002035	-0.0178689	
0.00204	-0.018141	
0.002045	-0.0183655	
0.00205	-0.0185481	
0.002055	-0.0187419	
0.00206	-0.0188864	
0.002065	-0.0189916	
0.00207	-0.0191609	
0.002075	-0.0192695	
0.00208	-0.0191427	
0.002085	-0.0189618	
0.00209	-0.0188963	
0.002095	-0.0189102	
0.0021	-0.0189756	
0.002105	-0.0190719	
0.00211	-0.0191365	
0.002115	-0.0191297	
0.00212	-0.0191235	
0.002125	-0.0191657	
0.00213	-0.0192377	
0.002135	-0.0192785	
0.00214	-0.0192491	
0.002145	-0.0192225	
0.00215	-0.0192465	
0.002155	-0.0192552	
0.00216	-0.0192058	
0.002165	-0.019073	
0.00217	-0.0188439	
0.002175	-0.0186096	
0.00218	-0.0183831	
0.002185	-0.0181248	
0.00219	-0.0179053	
0.002195	-0.0177694	
0.0022	-0.017695	
0.002205	-0.0176646	
0.00221	-0.0176172	
0.002215	-0.0175132	
0.00222	-0.0173769	
0.002225	-0.0172257	
0.00223	-0.0170718	
0.002235	-0.0169235	
0.00224	-0.0167858	
0.002245	-0.0166141	
0.00225	-0.0163331	
0.002255	-0.0158982	
0.00226	-0.0152873	
0.002265	-0.0144466	
0.00227	-0.0133041	
0.002275	-0.0119216	
0.00228	-0.0103986	
0.002285	-0.00776179	
0.00229	-0.00327933	
0.002295	0.0016376	
0.0023	0.00589541	
0.002305	0.00961231	
0.00231	0.0129394	
0.002315	0.0159471	
0.00232	0.018602	
0.002325	0.0209938	
0.00233	0.0232416	
0.002335	0.0253357	
0.00234	0.0273245	
0.002345	0.0292923	
0.00235	0.0312008	
0.002355	0.0330274	
0.00236	0.0347613	
0.002365	0.0363994	
0.00237	0.0380396	
0.002375	0.0397462	
0.00238	0.0413207	
0.002385	0.0426387	
0.00239	0.0439628	
0.002395	0.0454185	
0.0024	0.0468921	
0.002405	0.0483078	
0.00241	0.0496659	
0.002415	0.0510644	
0.00242	0.0525184	
0.002425	0.0539403	
0.00243	0.0553213	
0.002435	0.0567051	
0.00244	0.0581204	
0.002445	0.0595369	
0.00245	0.0609349	
0.002455	0.0623021	
0.00246	0.0635842	
0.002465	0.0647972	
0.00247	0.0659073	
0.002475	0.0668969	
0.00248	0.067903	
0.002485	0.0689674	
0.00249	0.0700198	
0.002495	0.0710147	
0.0025	0.071972	
0.002505	0.0729544	
0.00251	0.0739544	
0.002515	0.0749187	
0.00252	0.0758139	
0.002525	0.0766211	
0.00253	0.0773797	
0.002535	0.0781654	
0.00254	0.0789794	
0.002545	0.0797736	
0.00255	0.0805646	
0.002555	0.0814112	
0.00256	0.0823019	
0.002565	0.0831797	
0.00257	0.0840073	
0.002575	0.0847627	
0.00258	0.0854349	
0.002585	0.0860203	
0.00259	0.0865208	
0.002595	0.0869893	
0.0026	0.0874619	
0.002605	0.0878675	
0.00261	0.088162	
0.002615	0.0883695	
0.00262	0.0885573	
0.002625	0.0887707	
0.00263	0.0889435	
0.002635	0.0890336	
0.00264	0.0890651	
0.002645	0.0890564	
0.00265	0.0890692	
0.002655	0.0891905	
0.00266	0.0893778	
0.002665	0.089552	
0.00267	0.089757	
0.002675	0.0900202	
0.00268	0.0903092	
0.002685	0.0906966	
0.00269	0.0911782	
0.002695	0.091509	
0.0027	0.091582	
0.002705	0.0914816	
0.00271	0.0912717	
0.002715	0.0909994	
0.00272	0.090699	
0.002725	0.0903466	
0.00273	0.0899291	
0.002735	0.089536	
0.00274	0.0892251	
0.002745	0.088983	
0.00275	0.0887503	
0.002755	0.0884397	
0.00276	0.0880924	
0.002765	0.0877849	
0.00277	0.0874707	
0.002775	0.0872619	
0.00278	0.0873226	
0.002785	0.0874156	
0.00279	0.0872879	
0.002795	0.086973	
0.0028	0.0865021	
0.002805	0.0859031	
0.00281	0.0852005	
0.002815	0.0843676	
0.00282	0.0834883	
0.002825	0.0826675	
0.00283	0.0818766	
0.002835	0.0810952	
0.00284	0.080357	
0.002845	0.0795873	
0.00285	0.0786904	
0.002855	0.0777047	
0.00286	0.076612	
0.002865	0.0754052	
0.00287	0.0742279	
0.002875	0.0731258	
0.00288	0.0720302	
0.002885	0.0709432	
0.00289	0.0699133	
0.002895	0.0689698	
0.0029	0.0680803	
0.002905	0.067221	
0.00291	0.0664222	
0.002915	0.0656536	
0.00292	0.0648936	
0.002925	0.0641278	
0.00293	0.0632993	
0.002935	0.0624211	
0.00294	0.0615042	
0.002945	0.0605575	
0.00295	0.0596835	
0.002955	0.0588988	
0.00296	0.058115	
0.002965	0.0573214	
0.00297	0.0565112	
0.002975	0.055681	
0.00298	0.0548767	
0.002985	0.0540802	
0.00299	0.0532788	
0.002995	0.0524646	
0.003	0.0515854	
0.003005	0.0506574	
0.00301	0.0497411	
0.003015	0.0488759	
0.00302	0.0480852	
0.003025	0.0473336	
0.00303	0.0465482	
0.003035	0.0456826	
0.00304	0.0447101	
0.003045	0.0436654	
0.00305	0.0426226	
0.003055	0.0416303	
0.00306	0.0406708	
0.003065	0.0396832	
0.00307	0.0386762	
0.003075	0.0377041	
0.00308	0.0367535	
0.003085	0.0357668	
0.00309	0.0347556	
0.003095	0.033776	
0.0031	0.0328635	
0.003105	0.0320385	
0.00311	0.0312627	
0.003115	0.0304609	
0.00312	0.0296323	
0.003125	0.0287778	
0.00313	0.0278515	
0.003135	0.0268741	
0.00314	0.0259093	
0.003145	0.0249985	
0.00315	0.0242138	
0.003155	0.0235969	
0.00316	0.0230248	
0.003165	0.0223667	
0.00317	0.0216354	
0.003175	0.0207955	
0.00318	0.0198285	
0.003185	0.0189186	
0.00319	0.0181368	
0.003195	0.0173816	
0.0032	0.0166319	
0.003205	0.0159214	
0.00321	0.0151752	
0.003215	0.0142982	
0.00322	0.0133764	
0.003225	0.0125638	
0.00323	0.0118616	
0.003235	0.0111228	
0.00324	0.0103473	
0.003245	0.00963174	
0.00325	0.00889453	
0.003255	0.00808285	
0.00326	0.00730797	
0.003265	0.00664155	
0.00327	0.00603063	
0.003275	0.00534259	
0.00328	0.00454117	
0.003285	0.00375044	
0.00329	0.00305169	
0.003295	0.00244663	
0.0033	0.00193197	
0.003305	0.00145372	
0.00331	0.000974564	
0.003315	0.000517468	
0.00332	9.65392E-5	
0.003325	-0.000280634	
0.00333	-0.000658654	
0.003335	-0.00111442	
0.00334	-0.00164743	
0.003345	-0.00220616	
0.00335	-0.00280296	
0.003355	-0.00344416	
0.00336	-0.00413185	
0.003365	-0.0048652	
0.00337	-0.00573658	
0.003375	-0.00680035	
0.00338	-0.00775053	
0.003385	-0.00843826	
0.00339	-0.00901549	
0.003395	-0.00954009	
0.0034	-0.0100052	
0.003405	-0.010409	
0.00341	-0.010801	
0.003415	-0.011214	
0.00342	-0.0116214	
0.003425	-0.0120059	
0.00343	-0.0123571	
0.003435	-0.0127171	
0.00344	-0.0131136	
0.003445	-0.0135154	
0.00345	-0.0139016	
0.003455	-0.0142593	
0.00346	-0.0145813	
0.003465	-0.0148645	
0.00347	-0.0151087	
0.003475	-0.0153157	
0.00348	-0.0153458	
0.003485	-0.0151626	
0.00349	-0.0150378	
0.003495	-0.0150523	
0.0035	-0.0151105	
0.003505	-0.0152423	
0.00351	-0.0155114	
0.003515	-0.0158584	
0.00352	-0.0161452	
0.003525	-0.0163312	
0.00353	-0.016442	
0.003535	-0.016498	
0.00354	-0.0165151	
0.003545	-0.0165534	
0.00355	-0.0166989	
0.003555	-0.0169081	
0.00356	-0.017102	
0.003565	-0.0172766	
0.00357	-0.0174303	
0.003575	-0.0176103	
0.00358	-0.0177993	
0.003585	-0.0179376	
0.00359	-0.0181311	
0.003595	-0.0184945	
0.0036	-0.0189526	
0.003605	-0.0193565	
0.00361	-0.0196105	
0.003615	-0.0196585	
0.00362	-0.0195209	
0.003625	-0.019315	
0.00363	-0.0191689	
0.003635	-0.0191166	
0.00364	-0.0191286	
0.003645	-0.019135	
0.00365	-0.0190423	
0.003655	-0.0188411	
0.00366	-0.0185778	
0.003665	-0.018096	
0.00367	-0.0172076	
0.003675	-0.0160456	
0.00368	-0.0147107	
0.003685	-0.0132299	
0.00369	-0.0117703	
0.003695	-0.0103939	
0.0037	-0.0090898	
0.003705	-0.0078951	
0.00371	-0.00682904	
0.003715	-0.00594575	
0.00372	-0.00527228	
0.003725	-0.00472147	
0.00373	-0.00423005	
0.003735	-0.00384857	
0.00374	-0.00355762	
0.003745	-0.00324506	
0.00375	-0.00245767	
0.003755	-0.000919095	
0.00376	0.000709248	
0.003765	0.00198702	
0.00377	0.00321088	
0.003775	0.00457898	
0.00378	0.00597749	
0.003785	0.00737743	
0.00379	0.00885471	
0.003795	0.0104082	
0.0038	0.0117007	
0.003805	0.0121422	
0.00381	0.0116688	
0.003815	0.0106621	
0.00382	0.00944659	
0.003825	0.00815079	
0.00383	0.00681583	
0.003835	0.00551819	
0.00384	0.00425899	
0.003845	0.00303717	
0.00385	0.00189778	
0.003855	0.000914157	
0.00386	0.000127307	
0.003865	-0.00049259	
0.00387	-0.000878017	
0.003875	-0.000852941	
0.00388	-8.30357E-5	
0.003885	0.00152184	
0.00389	0.00345872	
0.003895	0.00538031	
0.0039	0.00729599	
0.003905	0.00921224	
0.00391	0.0111333	
0.003915	0.0130142	
0.00392	0.0147797	
0.003925	0.0164806	
0.00393	0.0182487	
0.003935	0.0196446	
0.00394	0.0201588	
0.003945	0.0202574	
0.00395	0.0205051	
0.003955	0.020982	
0.00396	0.0216826	
0.003965	0.0225926	
0.00397	0.0236927	
0.003975	0.0249611	
0.00398	0.0262806	
0.003985	0.0275714	
0.00399	0.0289247	
0.003995	0.0303503	
0.004	0.0318037	
0.004005	0.0333018	
0.00401	0.0348536	
0.004015	0.0365099	
0.00402	0.0382519	
0.004025	0.0399681	
0.00403	0.041586	
0.004035	0.0430626	
0.00404	0.0444237	
0.004045	0.0456918	
0.00405	0.0468387	
0.004055	0.0478989	
0.00406	0.0489469	
0.004065	0.0499848	
0.00407	0.0510144	
0.004075	0.0522277	
0.00408	0.0536471	
0.004085	0.0548978	
0.00409	0.0559305	
0.004095	0.0569607	
0.0041	0.0579406	
0.004105	0.058841	
0.00411	0.0596463	
0.004115	0.0602558	
0.00412	0.0606598	
0.004125	0.0609568	
0.00413	0.0612643	
0.004135	0.0616116	
0.00414	0.0619687	
0.004145	0.0623155	
0.00415	0.0626866	
0.004155	0.0631512	
0.00416	0.0636555	
0.004165	0.064067	
0.00417	0.0643504	
0.004175	0.064631	
0.00418	0.0649915	
0.004185	0.0655302	
0.00419	0.0663037	
0.004195	0.0669575	
0.0042	0.067264	
0.004205	0.0673269	
0.00421	0.0672262	
0.004215	0.0670224	
0.00422	0.0667604	
0.004225	0.0664722	
0.00423	0.0661805	
0.004235	0.0659002	
0.00424	0.0656408	
0.004245	0.0654073	
0.00425	0.065202	
0.004255	0.065025	
0.00426	0.0648275	
0.004265	0.0645783	
0.00427	0.0643068	
0.004275	0.0639858	
0.00428	0.0636	
0.004285	0.0632371	
0.00429	0.062954	
0.004295	0.0626895	
0.0043	0.0624021	
0.004305	0.0621133	
0.00431	0.0614093	
0.004315	0.0580882	
0.00432	0.0512971	
0.004325	0.0437753	
0.00433	0.0369355	
0.004335	0.0304886	
0.00434	0.0246057	
0.004345	0.0193729	
0.00435	0.0148163	
0.004355	0.010921	
0.00436	0.00764596	
0.004365	0.00493482	
0.00437	0.0027237	
0.004375	0.000946844	
0.00438	-0.000697315	
0.004385	-0.00241389	
0.00439	-0.00385936	
0.004395	-0.00486755	
0.0044	-0.00558728	
0.004405	-0.00603525	
0.00441	-0.0062353	
0.004415	-0.00626243	
0.00442	-0.00617426	
0.004425	-0.00601424	
0.00443	-0.00581441	
0.004435	-0.00555025	
0.00444	-0.00520864	
0.004445	-0.00487965	
0.00445	-0.00457454	
0.004455	-0.00425208	
0.00446	-0.00398095	
0.004465	-0.00380404	
0.00447	-0.00369762	
0.004475	-0.0036427	
0.00448	-0.00362434	
0.004485	-0.00363095	
0.00449	-0.00360618	
0.004495	-0.00351436	
0.0045	-0.0034302	
0.004505	-0.00340261	
0.00451	-0.00341363	
0.004515	-0.00340204	
0.00452	-0.00332856	
0.004525	-0.00326529	
0.00453	-0.00325927	
0.004535	-0.00329128	
0.00454	-0.00334687	
0.004545	-0.00341536	
0.00455	-0.00348912	
0.004555	-0.00356287	
0.00456	-0.00363312	
0.004565	-0.00369774	
0.00457	-0.0037556	
0.004575	-0.00380625	
0.00458	-0.00384977	
0.004585	-0.00388652	
0.00459	-0.00391706	
0.004595	-0.00398961	
0.0046	-0.0041815	
0.004605	-0.00449052	
0.00461	-0.00486217	
0.004615	-0.00525752	
0.00462	-0.00569735	
0.004625	-0.00619322	
0.00463	-0.00670261	
0.004635	-0.0071968	
0.00464	-0.00761007	
0.004645	-0.00795044	
0.00465	-0.00832171	
0.004655	-0.00874333	
0.00466	-0.00917821	
0.004665	-0.00960126	
0.00467	-0.0099965	
0.004675	-0.0103547	
0.00468	-0.0107191	
0.004685	-0.0112129	
0.00469	-0.0118163	
0.004695	-0.0123683	
0.0047	-0.0128603	
0.004705	-0.0132894	
0.00471	-0.0136093	
0.004715	-0.0138896	
0.00472	-0.014178	
0.004725	-0.0144581	
0.00473	-0.0147196	
0.004735	-0.0149563	
0.00474	-0.0151656	
0.004745	-0.0153468	
0.00475	-0.015501	
0.004755	-0.0156776	
0.00476	-0.0159082	
0.004765	-0.0161634	
0.00477	-0.0164229	
0.004775	-0.0166728	
0.00478	-0.0170948	
0.004785	-0.0178004	
0.00479	-0.018517	
0.004795	-0.0190644	
0.0048	-0.0194744	
0.004805	-0.0197743	
0.00481	-0.0199874	
0.004815	-0.0201809	
0.00482	-0.0203997	
0.004825	-0.0205773	
0.00483	-0.0206719	
0.004835	-0.0206597	
0.00484	-0.0205777	
0.004845	-0.0205961	
0.00485	-0.0207274	
0.004855	-0.0208319	
0.00486	-0.0208662	
0.004865	-0.0209001	
0.00487	-0.0210272	
0.004875	-0.0212574	
0.00488	-0.0215446	
0.004885	-0.0218082	
0.00489	-0.0220914	
0.004895	-0.0225167	
0.0049	-0.0229681	
0.004905	-0.0233202	
0.00491	-0.0235902	
0.004915	-0.0238409	
0.00492	-0.0241144	
0.004925	-0.0243902	
0.00493	-0.0246543	
0.004935	-0.0248508	
0.00494	-0.0249457	
0.004945	-0.0249693	
0.00495	-0.0249448	
0.004955	-0.0248896	
0.00496	-0.0248168	
0.004965	-0.0247835	
0.00497	-0.0248252	
0.004975	-0.0248669	
0.00498	-0.0248591	
0.004985	-0.024819	
0.00499	-0.024712	
0.004995	-0.0245185	
