Time - Plot 0	Amplitude - Plot 0	
0	0.112395	
5E-6	0.112455	
1E-5	0.112499	
1.5E-5	0.112532	
2E-5	0.112555	
2.5E-5	0.112713	
3E-5	0.113095	
3.5E-5	0.113417	
4E-5	0.113446	
4.5E-5	0.113234	
5E-5	0.112872	
5.5E-5	0.112428	
6E-5	0.111952	
6.5E-5	0.111477	
7E-5	0.111025	
7.5E-5	0.110609	
8E-5	0.110238	
8.5E-5	0.109912	
9E-5	0.109633	
9.5E-5	0.10935	
0.0001	0.10903	
0.000105	0.108701	
0.00011	0.108334	
0.000115	0.107911	
0.00012	0.107473	
0.000125	0.106996	
0.00013	0.10647	
0.000135	0.105936	
0.00014	0.105375	
0.000145	0.104774	
0.00015	0.104176	
0.000155	0.103608	
0.00016	0.103086	
0.000165	0.102573	
0.00017	0.101994	
0.000175	0.101351	
0.00018	0.10065	
0.000185	0.0998949	
0.00019	0.0991409	
0.000195	0.0983754	
0.0002	0.0975909	
0.000205	0.0968312	
0.00021	0.0960761	
0.000215	0.0952646	
0.00022	0.094407	
0.000225	0.0935593	
0.00023	0.0927109	
0.000235	0.091807	
0.00024	0.0908617	
0.000245	0.0898863	
0.00025	0.0887946	
0.000255	0.0875828	
0.00026	0.0863966	
0.000265	0.0852835	
0.00027	0.084176	
0.000275	0.0830772	
0.00028	0.0819885	
0.000285	0.0808629	
0.00029	0.0797186	
0.000295	0.0785687	
0.0003	0.0773743	
0.000305	0.0762071	
0.00031	0.0751606	
0.000315	0.074148	
0.00032	0.0730632	
0.000325	0.071982	
0.00033	0.0709543	
0.000335	0.069868	
0.00034	0.0686992	
0.000345	0.0675314	
0.00035	0.0663719	
0.000355	0.0651777	
0.00036	0.0639695	
0.000365	0.0627618	
0.00037	0.0615163	
0.000375	0.0602574	
0.00038	0.0590016	
0.000385	0.0577122	
0.00039	0.0563666	
0.000395	0.0549999	
0.0004	0.0537317	
0.000405	0.0525882	
0.00041	0.0514385	
0.000415	0.0502441	
0.00042	0.0490766	
0.000425	0.047887	
0.00043	0.0465965	
0.000435	0.045253	
0.00044	0.0439381	
0.000445	0.0426091	
0.00045	0.0411912	
0.000455	0.0397816	
0.00046	0.0384442	
0.000465	0.0371227	
0.00047	0.0358265	
0.000475	0.0346083	
0.00048	0.0334517	
0.000485	0.0322953	
0.00049	0.0310986	
0.000495	0.029837	
0.0005	0.0285921	
0.000505	0.0274648	
0.00051	0.0263732	
0.000515	0.0252141	
0.00052	0.0240179	
0.000525	0.0228538	
0.00053	0.0217183	
0.000535	0.0206079	
0.00054	0.0194715	
0.000545	0.0182291	
0.00055	0.0170231	
0.000555	0.0159456	
0.00056	0.0149564	
0.000565	0.0141196	
0.00057	0.0133754	
0.000575	0.0125373	
0.00058	0.0115819	
0.000585	0.0105943	
0.00059	0.00963216	
0.000595	0.00868482	
0.0006	0.00769697	
0.000605	0.00668158	
0.00061	0.00564853	
0.000615	0.00455763	
0.00062	0.00348018	
0.000625	0.0025101	
0.00063	0.00165668	
0.000635	0.00087303	
0.00064	2.98284E-5	
0.000645	-0.000907825	
0.00065	-0.0018634	
0.000655	-0.00283314	
0.00066	-0.00386142	
0.000665	-0.0049272	
0.00067	-0.00601483	
0.000675	-0.00716049	
0.00068	-0.00833777	
0.000685	-0.0094802	
0.00069	-0.0105456	
0.000695	-0.0115099	
0.0007	-0.0123619	
0.000705	-0.013147	
0.00071	-0.013946	
0.000715	-0.014764	
0.00072	-0.0155557	
0.000725	-0.0163402	
0.00073	-0.0171779	
0.000735	-0.0180586	
0.00074	-0.018926	
0.000745	-0.0197436	
0.00075	-0.0205373	
0.000755	-0.0213726	
0.00076	-0.0222436	
0.000765	-0.0230967	
0.00077	-0.0238978	
0.000775	-0.0246267	
0.00078	-0.0252735	
0.000785	-0.0258831	
0.00079	-0.0265344	
0.000795	-0.0272299	
0.0008	-0.0279218	
0.000805	-0.0285784	
0.00081	-0.0291808	
0.000815	-0.029719	
0.00082	-0.0301893	
0.000825	-0.0306401	
0.00083	-0.0311044	
0.000835	-0.031508	
0.00084	-0.0319001	
0.000845	-0.0323136	
0.00085	-0.0326265	
0.000855	-0.0329058	
0.00086	-0.0332449	
0.000865	-0.0336074	
0.00087	-0.0340156	
0.000875	-0.0344823	
0.00088	-0.0349178	
0.000885	-0.0352648	
0.00089	-0.0355368	
0.000895	-0.0357467	
0.0009	-0.0359531	
0.000905	-0.0362426	
0.00091	-0.0365732	
0.000915	-0.0368677	
0.00092	-0.0371719	
0.000925	-0.0375158	
0.00093	-0.0379171	
0.000935	-0.0381471	
0.00094	-0.0379681	
0.000945	-0.037718	
0.00095	-0.0376705	
0.000955	-0.0377589	
0.00096	-0.0378852	
0.000965	-0.0379829	
0.00097	-0.0381047	
0.000975	-0.0382841	
0.00098	-0.0384456	
0.000985	-0.03854	
0.00099	-0.0386333	
0.000995	-0.0387214	
0.001	-0.0387544	
0.001005	-0.0387495	
0.00101	-0.0387199	
0.001015	-0.0387229	
0.00102	-0.0387472	
0.001025	-0.0387369	
0.00103	-0.0387519	
0.001035	-0.0387827	
0.00104	-0.0387276	
0.001045	-0.0385707	
0.00105	-0.0384494	
0.001055	-0.0385473	
0.00106	-0.0388326	
0.001065	-0.039038	
0.00107	-0.0389907	
0.001075	-0.0387316	
0.00108	-0.0382975	
0.001085	-0.0376734	
0.00109	-0.0364309	
0.001095	-0.0340786	
0.0011	-0.0309158	
0.001105	-0.0273682	
0.00111	-0.0235921	
0.001115	-0.0197488	
0.00112	-0.0159479	
0.001125	-0.0122597	
0.00113	-0.00867763	
0.001135	-0.00519235	
0.00114	-0.00188821	
0.001145	0.00118777	
0.00115	0.00406288	
0.001155	0.00671712	
0.00116	0.0091477	
0.001165	0.0114585	
0.00117	0.0137236	
0.001175	0.0158989	
0.00118	0.0179123	
0.001185	0.0197711	
0.00119	0.0215826	
0.001195	0.0233725	
0.0012	0.0250634	
0.001205	0.0266565	
0.00121	0.0281574	
0.001215	0.0295741	
0.00122	0.0310108	
0.001225	0.0324878	
0.00123	0.033874	
0.001235	0.0351823	
0.00124	0.0365675	
0.001245	0.038033	
0.00125	0.0394821	
0.001255	0.0408518	
0.00126	0.0421044	
0.001265	0.0433156	
0.00127	0.0445849	
0.001275	0.0458324	
0.00128	0.046959	
0.001285	0.0479526	
0.00129	0.0488591	
0.001295	0.0497127	
0.0013	0.0504436	
0.001305	0.0511066	
0.00131	0.051836	
0.001315	0.0526223	
0.00132	0.0534089	
0.001325	0.0541584	
0.00133	0.0548956	
0.001335	0.0556374	
0.00134	0.0563471	
0.001345	0.0570021	
0.00135	0.05759	
0.001355	0.0581534	
0.00136	0.0588641	
0.001365	0.059781	
0.00137	0.0606954	
0.001375	0.0614698	
0.00138	0.0621153	
0.001385	0.0626453	
0.00139	0.063074	
0.001395	0.0634156	
0.0014	0.0636838	
0.001405	0.0639383	
0.00141	0.0642193	
0.001415	0.0644569	
0.00142	0.0646072	
0.001425	0.0647403	
0.00143	0.0649034	
0.001435	0.0650309	
0.00144	0.0650814	
0.001445	0.0650788	
0.00145	0.0650413	
0.001455	0.0649349	
0.00146	0.0647408	
0.001465	0.0645454	
0.00147	0.064406	
0.001475	0.0642625	
0.00148	0.0640757	
0.001485	0.0639165	
0.00149	0.0637833	
0.001495	0.0635782	
0.0015	0.0632881	
0.001505	0.0629555	
0.00151	0.0626107	
0.001515	0.0622741	
0.00152	0.0619114	
0.001525	0.0614535	
0.00153	0.0609544	
0.001535	0.060547	
0.00154	0.0602192	
0.001545	0.0598644	
0.00155	0.0594609	
0.001555	0.0590446	
0.00156	0.0586393	
0.001565	0.0582606	
0.00157	0.0579173	
0.001575	0.057566	
0.00158	0.0571311	
0.001585	0.0565664	
0.00159	0.0558954	
0.001595	0.055186	
0.0016	0.0544374	
0.001605	0.0536507	
0.00161	0.0528761	
0.001615	0.0520987	
0.00162	0.051261	
0.001625	0.0503757	
0.00163	0.0495009	
0.001635	0.0486744	
0.00164	0.0479188	
0.001645	0.0471507	
0.00165	0.046268	
0.001655	0.0453515	
0.00166	0.0445986	
0.001665	0.0440369	
0.00167	0.0434375	
0.001675	0.0426991	
0.00168	0.0418564	
0.001685	0.0408422	
0.00169	0.0396678	
0.001695	0.0384909	
0.0017	0.037368	
0.001705	0.0362862	
0.00171	0.0352352	
0.001715	0.0341592	
0.00172	0.03307	
0.001725	0.0319761	
0.00173	0.0308833	
0.001735	0.0298429	
0.00174	0.0288862	
0.001745	0.0279826	
0.00175	0.0270139	
0.001755	0.0259532	
0.00176	0.0250721	
0.001765	0.0244936	
0.00177	0.0239045	
0.001775	0.0230984	
0.00178	0.0220924	
0.001785	0.0209546	
0.00179	0.0197837	
0.001795	0.0186464	
0.0018	0.017585	
0.001805	0.0166239	
0.00181	0.0157268	
0.001815	0.0147717	
0.00182	0.0137286	
0.001825	0.0126767	
0.00183	0.0115736	
0.001835	0.010394	
0.00184	0.00921975	
0.001845	0.00810447	
0.00185	0.00708087	
0.001855	0.0061186	
0.00186	0.0051472	
0.001865	0.00416819	
0.00187	0.00323047	
0.001875	0.00231679	
0.00188	0.00136711	
0.001885	0.000391067	
0.00189	-0.000556188	
0.001895	-0.00148719	
0.0019	-0.00241099	
0.001905	-0.00328634	
0.00191	-0.00408834	
0.001915	-0.00480405	
0.00192	-0.00547654	
0.001925	-0.00618381	
0.00193	-0.00692808	
0.001935	-0.0077091	
0.00194	-0.00857246	
0.001945	-0.00949682	
0.00195	-0.0104177	
0.001955	-0.0112927	
0.00196	-0.012096	
0.001965	-0.0128142	
0.00197	-0.0133471	
0.001975	-0.0136852	
0.00198	-0.0140689	
0.001985	-0.0146072	
0.00199	-0.0152694	
0.001995	-0.0160297	
0.002	-0.0168185	
0.002005	-0.0176365	
0.00201	-0.0184825	
0.002015	-0.0193545	
0.00202	-0.0202975	
0.002025	-0.0212902	
0.00203	-0.0222688	
0.002035	-0.0231917	
0.00204	-0.0240343	
0.002045	-0.0247841	
0.00205	-0.0254372	
0.002055	-0.0260433	
0.00206	-0.0266847	
0.002065	-0.0275092	
0.00207	-0.028558	
0.002075	-0.0295626	
0.00208	-0.0303479	
0.002085	-0.0309514	
0.00209	-0.031454	
0.002095	-0.0319615	
0.0021	-0.0324956	
0.002105	-0.0329746	
0.00211	-0.033347	
0.002115	-0.033679	
0.00212	-0.0340163	
0.002125	-0.034341	
0.00213	-0.0346422	
0.002135	-0.034961	
0.00214	-0.035324	
0.002145	-0.035699	
0.00215	-0.0360165	
0.002155	-0.0361386	
0.00216	-0.0359834	
0.002165	-0.0355577	
0.00217	-0.0348787	
0.002175	-0.0339696	
0.00218	-0.0329045	
0.002185	-0.0316916	
0.00219	-0.0302486	
0.002195	-0.0285795	
0.0022	-0.0267452	
0.002205	-0.0248413	
0.00221	-0.0229814	
0.002215	-0.021191	
0.00222	-0.019436	
0.002225	-0.0177399	
0.00223	-0.0161153	
0.002235	-0.0145196	
0.00224	-0.0129708	
0.002245	-0.0114788	
0.00225	-0.00999967	
0.002255	-0.00855144	
0.00226	-0.0071921	
0.002265	-0.00590812	
0.00227	-0.00473456	
0.002275	-0.00373685	
0.00228	-0.0028072	
0.002285	-0.00187133	
0.00229	-0.00092808	
0.002295	2.29532E-5	
0.0023	0.000934137	
0.002305	0.00182348	
0.00231	0.00270391	
0.002315	0.0035368	
0.00232	0.0043465	
0.002325	0.00519768	
0.00233	0.00608349	
0.002335	0.00695023	
0.00234	0.00781093	
0.002345	0.00872203	
0.00235	0.0107166	
0.002355	0.015185	
0.00236	0.0216437	
0.002365	0.0288239	
0.00237	0.0359026	
0.002375	0.0414862	
0.00238	0.0451069	
0.002385	0.0483555	
0.00239	0.0520132	
0.002395	0.0556249	
0.0024	0.0589881	
0.002405	0.0621233	
0.00241	0.0651501	
0.002415	0.0680574	
0.00242	0.0707482	
0.002425	0.0731692	
0.00243	0.0753452	
0.002435	0.0773519	
0.00244	0.0791995	
0.002445	0.0809024	
0.00245	0.0825244	
0.002455	0.084064	
0.00246	0.0854762	
0.002465	0.0865477	
0.00247	0.0872012	
0.002475	0.0878333	
0.00248	0.0886592	
0.002485	0.0895738	
0.00249	0.0905036	
0.002495	0.0914469	
0.0025	0.0924022	
0.002505	0.0933201	
0.00251	0.0942174	
0.002515	0.0951064	
0.00252	0.0959477	
0.002525	0.0967179	
0.00253	0.0974047	
0.002535	0.0980516	
0.00254	0.0987367	
0.002545	0.099462	
0.00255	0.10018	
0.002555	0.100858	
0.00256	0.101526	
0.002565	0.102204	
0.00257	0.102855	
0.002575	0.103459	
0.00258	0.103954	
0.002585	0.104356	
0.00259	0.104818	
0.002595	0.105394	
0.0026	0.106018	
0.002605	0.106692	
0.00261	0.107366	
0.002615	0.107914	
0.00262	0.108304	
0.002625	0.108621	
0.00263	0.108921	
0.002635	0.109149	
0.00264	0.109317	
0.002645	0.109535	
0.00265	0.109821	
0.002655	0.11014	
0.00266	0.110464	
0.002665	0.110778	
0.00267	0.111069	
0.002675	0.111331	
0.00268	0.111563	
0.002685	0.111763	
0.00269	0.111932	
0.002695	0.112074	
0.0027	0.11219	
0.002705	0.112285	
0.00271	0.11236	
0.002715	0.112372	
0.00272	0.112294	
0.002725	0.112302	
0.00273	0.112511	
0.002735	0.112745	
0.00274	0.112844	
0.002745	0.112753	
0.00275	0.112494	
0.002755	0.112136	
0.00276	0.111778	
0.002765	0.111484	
0.00277	0.111151	
0.002775	0.110665	
0.00278	0.110102	
0.002785	0.109609	
0.00279	0.109234	
0.002795	0.108907	
0.0028	0.108531	
0.002805	0.108093	
0.00281	0.107636	
0.002815	0.107187	
0.00282	0.106765	
0.002825	0.106334	
0.00283	0.105868	
0.002835	0.105355	
0.00284	0.10474	
0.002845	0.104086	
0.00285	0.103485	
0.002855	0.102901	
0.00286	0.102259	
0.002865	0.101706	
0.00287	0.101379	
0.002875	0.101075	
0.00288	0.100657	
0.002885	0.100136	
0.00289	0.0994774	
0.002895	0.0986638	
0.0029	0.0976914	
0.002905	0.0966129	
0.00291	0.0955153	
0.002915	0.0944095	
0.00292	0.0932555	
0.002925	0.0921244	
0.00293	0.0911094	
0.002935	0.0901714	
0.00294	0.0892335	
0.002945	0.0882924	
0.00295	0.0873463	
0.002955	0.0863465	
0.00296	0.085311	
0.002965	0.084206	
0.00297	0.0830123	
0.002975	0.0818165	
0.00298	0.0806284	
0.002985	0.0794066	
0.00299	0.0781251	
0.002995	0.0768175	
0.003	0.0755544	
0.003005	0.0743805	
0.00301	0.0732733	
0.003015	0.0721674	
0.00302	0.0710672	
0.003025	0.0699752	
0.00303	0.0688452	
0.003035	0.067696	
0.00304	0.066541	
0.003045	0.0653418	
0.00305	0.0641701	
0.003055	0.0630719	
0.00306	0.0619316	
0.003065	0.0607224	
0.00307	0.0596675	
0.003075	0.0589069	
0.00308	0.0581386	
0.003085	0.0570688	
0.00309	0.0557558	
0.003095	0.0543446	
0.0031	0.0529352	
0.003105	0.0515463	
0.00311	0.0500939	
0.003115	0.0485258	
0.00312	0.0469079	
0.003125	0.0453339	
0.00313	0.0438631	
0.003135	0.04253	
0.00314	0.0413508	
0.003145	0.0402812	
0.00315	0.0391919	
0.003155	0.0379985	
0.00316	0.0367454	
0.003165	0.0354646	
0.00317	0.0341312	
0.003175	0.0327785	
0.00318	0.0314771	
0.003185	0.0302711	
0.00319	0.029185	
0.003195	0.0281819	
0.0032	0.0271382	
0.003205	0.0259746	
0.00321	0.0247394	
0.003215	0.0235155	
0.00322	0.0223092	
0.003225	0.0210767	
0.00323	0.0198376	
0.003235	0.0186528	
0.00324	0.0175597	
0.003245	0.0165314	
0.00325	0.0154993	
0.003255	0.014466	
0.00326	0.0134332	
0.003265	0.0124497	
0.00327	0.0115926	
0.003275	0.0107169	
0.00328	0.00968014	
0.003285	0.00858625	
0.00329	0.00755396	
0.003295	0.00656358	
0.0033	0.00560014	
0.003305	0.00470003	
0.00331	0.00383671	
0.003315	0.00289587	
0.00332	0.00185336	
0.003325	0.000793117	
0.00333	-0.000276209	
0.003335	-0.00134848	
0.00334	-0.00241951	
0.003345	-0.00353414	
0.00335	-0.00467234	
0.003355	-0.00577223	
0.00336	-0.00679485	
0.003365	-0.00771815	
0.00337	-0.00857983	
0.003375	-0.0094552	
0.00338	-0.0103457	
0.003385	-0.0112041	
0.00339	-0.0120483	
0.003395	-0.0128906	
0.0034	-0.013692	
0.003405	-0.0144759	
0.00341	-0.0152588	
0.003415	-0.016004	
0.00342	-0.0167367	
0.003425	-0.0175214	
0.00343	-0.018351	
0.003435	-0.0191709	
0.00344	-0.0199455	
0.003445	-0.0206538	
0.00345	-0.0212847	
0.003455	-0.0218349	
0.00346	-0.0223533	
0.003465	-0.0229212	
0.00347	-0.0235426	
0.003475	-0.0240747	
0.00348	-0.0244753	
0.003485	-0.0249603	
0.00349	-0.0256206	
0.003495	-0.0263653	
0.0035	-0.0271305	
0.003505	-0.0278729	
0.00351	-0.0285652	
0.003515	-0.0291918	
0.00352	-0.0297453	
0.003525	-0.030272	
0.00353	-0.0308038	
0.003535	-0.0313136	
0.00354	-0.0318324	
0.003545	-0.0323327	
0.00355	-0.0327494	
0.003555	-0.033139	
0.00356	-0.0335397	
0.003565	-0.0339289	
0.00357	-0.0342919	
0.003575	-0.0346207	
0.00358	-0.0349588	
0.003585	-0.0353346	
0.00359	-0.0356699	
0.003595	-0.0359152	
0.0036	-0.0360895	
0.003605	-0.0362087	
0.00361	-0.0363336	
0.003615	-0.0365513	
0.00362	-0.0368674	
0.003625	-0.0372335	
0.00363	-0.0376153	
0.003635	-0.0379418	
0.00364	-0.0381213	
0.003645	-0.0381479	
0.00365	-0.0381199	
0.003655	-0.0381524	
0.00366	-0.0382231	
0.003665	-0.0382207	
0.00367	-0.0381702	
0.003675	-0.0381379	
0.00368	-0.0380715	
0.003685	-0.0379859	
0.00369	-0.0379867	
0.003695	-0.0380919	
0.0037	-0.0382611	
0.003705	-0.0384168	
0.00371	-0.0384613	
0.003715	-0.0383827	
0.00372	-0.0382268	
0.003725	-0.0380748	
0.00373	-0.03798	
0.003735	-0.03788	
0.00374	-0.0377337	
0.003745	-0.0375638	
0.00375	-0.0373863	
0.003755	-0.0371648	
0.00376	-0.0368296	
0.003765	-0.0363402	
0.00377	-0.0356297	
0.003775	-0.0345218	
0.00378	-0.032729	
0.003785	-0.0301415	
0.00379	-0.0270098	
0.003795	-0.0235724	
0.0038	-0.0199534	
0.003805	-0.0162907	
0.00381	-0.0126298	
0.003815	-0.00904832	
0.00382	-0.00564093	
0.003825	-0.00236693	
0.00383	0.000806885	
0.003835	0.00381206	
0.00384	0.00661145	
0.003845	0.00923781	
0.00385	0.0116734	
0.003855	0.013868	
0.00386	0.015895	
0.003865	0.0179058	
0.00387	0.0199058	
0.003875	0.0217566	
0.00388	0.0234214	
0.003885	0.0250276	
0.00389	0.0266616	
0.003895	0.0283319	
0.0039	0.0299945	
0.003905	0.0315735	
0.00391	0.0330702	
0.003915	0.034537	
0.00392	0.0359621	
0.003925	0.0373399	
0.00393	0.0387164	
0.003935	0.0400745	
0.00394	0.0413562	
0.003945	0.0425745	
0.00395	0.0437884	
0.003955	0.0449895	
0.00396	0.0461254	
0.003965	0.0472121	
0.00397	0.0481674	
0.003975	0.0488958	
0.00398	0.0495829	
0.003985	0.0504002	
0.00399	0.0513599	
0.003995	0.052368	
0.004	0.0532654	
0.004005	0.0540472	
0.00401	0.054811	
0.004015	0.0555743	
0.00402	0.0563011	
0.004025	0.0569696	
0.00403	0.0576155	
0.004035	0.0582634	
0.00404	0.0588821	
0.004045	0.0594998	
0.00405	0.0601351	
0.004055	0.0607045	
0.00406	0.0611559	
0.004065	0.0615557	
0.00407	0.0619502	
0.004075	0.06237	
0.00408	0.0628817	
0.004085	0.0634773	
0.00409	0.0640526	
0.004095	0.0644921	
0.0041	0.0647739	
0.004105	0.0649383	
0.00411	0.0650175	
0.004115	0.0650843	
0.00412	0.0651874	
0.004125	0.0653095	
0.00413	0.0654383	
0.004135	0.065518	
0.00414	0.0655615	
0.004145	0.0656741	
0.00415	0.065827	
0.004155	0.0659042	
0.00416	0.0658802	
0.004165	0.0657906	
0.00417	0.0656621	
0.004175	0.0656566	
0.00418	0.0659226	
0.004185	0.0662599	
0.00419	0.0663906	
0.004195	0.0662363	
0.0042	0.0659015	
0.004205	0.0655109	
0.00421	0.0650545	
0.004215	0.0645287	
0.00422	0.0639822	
0.004225	0.0634477	
0.00423	0.062899	
0.004235	0.0622717	
0.00424	0.0615748	
0.004245	0.0608174	
0.00425	0.0599609	
0.004255	0.0590795	
0.00426	0.0583185	
0.004265	0.0576728	
0.00427	0.0570387	
0.004275	0.0561094	
0.00428	0.0546967	
0.004285	0.0532223	
0.00429	0.0520145	
0.004295	0.0510397	
0.0043	0.0502171	
0.004305	0.0494387	
0.00431	0.0486786	
0.004315	0.0479666	
0.00432	0.0473201	
0.004325	0.0466996	
0.00433	0.0460307	
0.004335	0.045314	
0.00434	0.0445995	
0.004345	0.0438729	
0.00435	0.0431251	
0.004355	0.0423986	
0.00436	0.0416731	
0.004365	0.0409349	
0.00437	0.0401759	
0.004375	0.0393438	
0.00438	0.0384555	
0.004385	0.0375245	
0.00439	0.0365619	
0.004395	0.035624	
0.0044	0.0346516	
0.004405	0.03356	
0.00441	0.0323937	
0.004415	0.0311859	
0.00442	0.0299603	
0.004425	0.028781	
0.00443	0.0276403	
0.004435	0.0265792	
0.00444	0.0256682	
0.004445	0.0248517	
0.00445	0.0240411	
0.004455	0.0231776	
0.00446	0.0222727	
0.004465	0.0213831	
0.00447	0.0205457	
0.004475	0.0197349	
0.00448	0.0188373	
0.004485	0.0178299	
0.00449	0.0167977	
0.004495	0.0157504	
0.0045	0.0146952	
0.004505	0.0136847	
0.00451	0.012704	
0.004515	0.0116941	
0.00452	0.0106653	
0.004525	0.00967268	
0.00453	0.00875084	
0.004535	0.00787174	
0.00454	0.00701487	
0.004545	0.00621318	
0.00455	0.00543825	
0.004555	0.00462256	
0.00456	0.0037235	
0.004565	0.00276445	
0.00457	0.00181122	
0.004575	0.000859368	
0.00458	-0.000189158	
0.004585	-0.00129937	
0.00459	-0.00230267	
0.004595	-0.00318802	
0.0046	-0.00400127	
0.004605	-0.00477605	
0.00461	-0.00553636	
0.004615	-0.00625115	
0.00462	-0.00694967	
0.004625	-0.00765196	
0.00463	-0.00837105	
0.004635	-0.00916227	
0.00464	-0.0100112	
0.004645	-0.0108579	
0.00465	-0.0116633	
0.004655	-0.0124032	
0.00466	-0.0131125	
0.004665	-0.0138632	
0.00467	-0.0147006	
0.004675	-0.0155082	
0.00468	-0.0161153	
0.004685	-0.0166566	
0.00469	-0.0173189	
0.004695	-0.0180773	
0.0047	-0.0188632	
0.004705	-0.0196776	
0.00471	-0.0205673	
0.004715	-0.0215121	
0.00472	-0.0224486	
0.004725	-0.0233828	
0.00473	-0.0243189	
0.004735	-0.0252119	
0.00474	-0.0260819	
0.004745	-0.026943	
0.00475	-0.0277575	
0.004755	-0.0285029	
0.00476	-0.0291673	
0.004765	-0.0297945	
0.00477	-0.0304151	
0.004775	-0.0309543	
0.00478	-0.0314145	
0.004785	-0.0318483	
0.00479	-0.0321966	
0.004795	-0.0324721	
0.0048	-0.0327816	
0.004805	-0.0331465	
0.00481	-0.0335306	
0.004815	-0.0339092	
0.00482	-0.0342663	
0.004825	-0.0346398	
0.00483	-0.035054	
0.004835	-0.0353805	
0.00484	-0.035491	
0.004845	-0.0353112	
0.00485	-0.0347585	
0.004855	-0.0338909	
0.00486	-0.0328092	
0.004865	-0.0315425	
0.00487	-0.0301185	
0.004875	-0.0286108	
0.00488	-0.027119	
0.004885	-0.0256134	
0.00489	-0.0240271	
0.004895	-0.0223677	
0.0049	-0.0206435	
0.004905	-0.0189105	
0.00491	-0.0172062	
0.004915	-0.0155063	
0.00492	-0.0138423	
0.004925	-0.012233	
0.00493	-0.0106409	
0.004935	-0.00908781	
0.00494	-0.00763399	
0.004945	-0.00631435	
0.00495	-0.00509806	
0.004955	-0.00391238	
0.00496	-0.00275542	
0.004965	-0.00162459	
0.00497	-0.00046939	
0.004975	0.000694764	
0.00498	0.0018573	
0.004985	0.00301132	
0.00499	0.00410514	
0.004995	0.00515506	
0.005	0.00617393	
0.005005	0.00717166	
0.00501	0.00820333	
0.005015	0.00925612	
0.00502	0.0102731	
0.005025	0.0112182	
0.00503	0.0121189	
0.005035	0.0130428	
0.00504	0.0139857	
0.005045	0.0150393	
0.00505	0.0163536	
0.005055	0.0178252	
0.00506	0.0192834	
0.005065	0.0207113	
