Time - Plot 0	Amplitude - Plot 0	
0	0.0842734	
5E-6	0.0836106	
1E-5	0.0828792	
1.5E-5	0.0820896	
2E-5	0.081299	
2.5E-5	0.0805452	
3E-5	0.0798038	
3.5E-5	0.079058	
4E-5	0.0783446	
4.5E-5	0.0775912	
5E-5	0.0767046	
5.5E-5	0.0757244	
6E-5	0.074729	
6.5E-5	0.0738181	
7E-5	0.0730535	
7.5E-5	0.0723266	
8E-5	0.0715162	
8.5E-5	0.0706416	
9E-5	0.0697184	
9.5E-5	0.0687595	
0.0001	0.0678222	
0.000105	0.066896	
0.00011	0.0659259	
0.000115	0.0648777	
0.00012	0.0637799	
0.000125	0.0627015	
0.00013	0.0616868	
0.000135	0.0606194	
0.00014	0.0594253	
0.000145	0.0582516	
0.00015	0.0570993	
0.000155	0.0559682	
0.00016	0.0549519	
0.000165	0.054012	
0.00017	0.0531193	
0.000175	0.0522525	
0.00018	0.0513011	
0.000185	0.0501963	
0.00019	0.0489951	
0.000195	0.0477872	
0.0002	0.046632	
0.000205	0.0455185	
0.00021	0.0443903	
0.000215	0.0432581	
0.00022	0.0421769	
0.000225	0.0411329	
0.00023	0.0402103	
0.000235	0.0395065	
0.00024	0.0388376	
0.000245	0.0380332	
0.00025	0.0371301	
0.000255	0.036252	
0.00026	0.0354795	
0.000265	0.0347657	
0.00027	0.0340293	
0.000275	0.0332652	
0.00028	0.0324715	
0.000285	0.0316482	
0.00029	0.0308445	
0.000295	0.030044	
0.0003	0.0291886	
0.000305	0.0282422	
0.00031	0.0272331	
0.000315	0.0262305	
0.00032	0.0252319	
0.000325	0.0241882	
0.00033	0.0231165	
0.000335	0.0220772	
0.00034	0.0212984	
0.000345	0.0208708	
0.00035	0.0204099	
0.000355	0.0197586	
0.00036	0.0190126	
0.000365	0.0181444	
0.00037	0.0172366	
0.000375	0.0163457	
0.00038	0.015413	
0.000385	0.0144493	
0.00039	0.0135108	
0.000395	0.0132036	
0.0004	0.0138502	
0.000405	0.014382	
0.00041	0.0141475	
0.000415	0.0134188	
0.00042	0.0123512	
0.000425	0.0110631	
0.00043	0.00973806	
0.000435	0.0084989	
0.00044	0.00737496	
0.000445	0.00633261	
0.00045	0.00529829	
0.000455	0.00431819	
0.00046	0.00342019	
0.000465	0.00252373	
0.00047	0.00162314	
0.000475	0.000762435	
0.00048	-3.12691E-5	
0.000485	-0.000790791	
0.00049	-0.00158692	
0.000495	-0.00241707	
0.0005	-0.00323038	
0.000505	-0.00404167	
0.00051	-0.00481324	
0.000515	-0.00547459	
0.00052	-0.00612707	
0.000525	-0.00683791	
0.00053	-0.0075536	
0.000535	-0.00828618	
0.00054	-0.00904278	
0.000545	-0.00973189	
0.00055	-0.0103915	
0.000555	-0.0110954	
0.00056	-0.0117478	
0.000565	-0.0123353	
0.00057	-0.0128999	
0.000575	-0.0134225	
0.00058	-0.0138928	
0.000585	-0.0143064	
0.00059	-0.014663	
0.000595	-0.0149651	
0.0006	-0.0152171	
0.000605	-0.0154716	
0.00061	-0.0158108	
0.000615	-0.0161898	
0.00062	-0.0164821	
0.000625	-0.0166558	
0.00063	-0.0169808	
0.000635	-0.0176278	
0.00064	-0.0182665	
0.000645	-0.0186792	
0.00065	-0.0189235	
0.000655	-0.0190452	
0.00066	-0.0190803	
0.000665	-0.0191041	
0.00067	-0.019167	
0.000675	-0.0192526	
0.00068	-0.0193966	
0.000685	-0.01962	
0.00069	-0.0198851	
0.000695	-0.0202126	
0.0007	-0.0205659	
0.000705	-0.0208719	
0.00071	-0.0211798	
0.000715	-0.0215219	
0.00072	-0.0218228	
0.000725	-0.0219873	
0.00073	-0.0220065	
0.000735	-0.021929	
0.00074	-0.0216489	
0.000745	-0.0211057	
0.00075	-0.0205574	
0.000755	-0.0202218	
0.00076	-0.0200899	
0.000765	-0.0200985	
0.00077	-0.0201993	
0.000775	-0.0203562	
0.00078	-0.0205426	
0.000785	-0.0204544	
0.00079	-0.0196666	
0.000795	-0.0182644	
0.0008	-0.0166187	
0.000805	-0.0149377	
0.00081	-0.013313	
0.000815	-0.0118022	
0.00082	-0.010438	
0.000825	-0.00928248	
0.00083	-0.00841432	
0.000835	-0.00777668	
0.00084	-0.00732118	
0.000845	-0.00710239	
0.00085	-0.00700249	
0.000855	-0.00679557	
0.00086	-0.00643279	
0.000865	-0.00603194	
0.00087	-0.00562495	
0.000875	-0.00509056	
0.00088	-0.0043073	
0.000885	-0.00325439	
0.00089	-0.00197842	
0.000895	-0.000710795	
0.0009	0.000253696	
0.000905	0.000925163	
0.00091	0.00137167	
0.000915	0.00160119	
0.00092	0.00167679	
0.000925	0.0015998	
0.00093	0.00133076	
0.000935	0.00104289	
0.00094	0.000898834	
0.000945	0.000761337	
0.00095	0.000539599	
0.000955	0.00022527	
0.00096	-0.000135241	
0.000965	-0.000414081	
0.00097	-0.000578347	
0.000975	-0.000706836	
0.00098	-0.000900728	
0.000985	-0.00117611	
0.00099	-0.00149219	
0.000995	-0.00177263	
0.001	-0.00187369	
0.001005	-0.00166157	
0.00101	-0.00106283	
0.001015	-9.49015E-5	
0.00102	0.00126082	
0.001025	0.00299824	
0.00103	0.00490515	
0.001035	0.00688117	
0.00104	0.0089519	
0.001045	0.0112248	
0.00105	0.0137612	
0.001055	0.0160661	
0.00106	0.0173964	
0.001065	0.0175933	
0.00107	0.0171287	
0.001075	0.0163449	
0.00108	0.0153403	
0.001085	0.0143327	
0.00109	0.0135608	
0.001095	0.0131235	
0.0011	0.0130225	
0.001105	0.0132432	
0.00111	0.0137606	
0.001115	0.0145917	
0.00112	0.015733	
0.001125	0.0171199	
0.00113	0.0186982	
0.001135	0.0203756	
0.00114	0.0220866	
0.001145	0.0238337	
0.00115	0.0256648	
0.001155	0.0276072	
0.00116	0.029531	
0.001165	0.0313517	
0.00117	0.0331133	
0.001175	0.0348002	
0.00118	0.0363581	
0.001185	0.0378046	
0.00119	0.0392045	
0.001195	0.0405549	
0.0012	0.0418089	
0.001205	0.0429874	
0.00121	0.044108	
0.001215	0.0451375	
0.00122	0.0461056	
0.001225	0.0470827	
0.00123	0.0480669	
0.001235	0.0490093	
0.00124	0.0499746	
0.001245	0.0510044	
0.00125	0.0520281	
0.001255	0.0530944	
0.00126	0.0542334	
0.001265	0.0553189	
0.00127	0.0562703	
0.001275	0.0570883	
0.00128	0.0577796	
0.001285	0.0583547	
0.00129	0.0588735	
0.001295	0.0593781	
0.0013	0.0598021	
0.001305	0.0601528	
0.00131	0.0605337	
0.001315	0.0609164	
0.00132	0.0611872	
0.001325	0.0613239	
0.00133	0.0614132	
0.001335	0.0615621	
0.00134	0.0617908	
0.001345	0.0620613	
0.00135	0.0622039	
0.001355	0.0621129	
0.00136	0.0620148	
0.001365	0.0620592	
0.00137	0.0621955	
0.001375	0.0623384	
0.00138	0.0624313	
0.001385	0.0624869	
0.00139	0.0624678	
0.001395	0.0623527	
0.0014	0.0622273	
0.001405	0.0621962	
0.00141	0.0622286	
0.001415	0.0622064	
0.00142	0.0621017	
0.001425	0.0619475	
0.00143	0.061768	
0.001435	0.0615802	
0.00144	0.061396	
0.001445	0.0612227	
0.00145	0.0610174	
0.001455	0.0607055	
0.00146	0.0602907	
0.001465	0.0598275	
0.00147	0.0593544	
0.001475	0.0588496	
0.00148	0.0582526	
0.001485	0.0576232	
0.00149	0.0570497	
0.001495	0.0564926	
0.0015	0.0558776	
0.001505	0.055206	
0.00151	0.0545288	
0.001515	0.0538325	
0.00152	0.0531089	
0.001525	0.0524016	
0.00153	0.0517385	
0.001535	0.0511358	
0.00154	0.050554	
0.001545	0.0500135	
0.00155	0.0495733	
0.001555	0.0491249	
0.00156	0.0486449	
0.001565	0.0482143	
0.00157	0.0477415	
0.001575	0.0471206	
0.00158	0.046384	
0.001585	0.0456058	
0.00159	0.0448371	
0.001595	0.044111	
0.0016	0.0434473	
0.001605	0.0428086	
0.00161	0.0421216	
0.001615	0.0413876	
0.00162	0.0406099	
0.001625	0.039745	
0.00163	0.038816	
0.001635	0.0378887	
0.00164	0.0370064	
0.001645	0.0361955	
0.00165	0.03547	
0.001655	0.0346449	
0.00166	0.0335557	
0.001665	0.0324387	
0.00167	0.031499	
0.001675	0.0307206	
0.00168	0.0300853	
0.001685	0.0295744	
0.00169	0.0291698	
0.001695	0.0288068	
0.0017	0.0283933	
0.001705	0.0279186	
0.00171	0.027426	
0.001715	0.0268973	
0.00172	0.0262748	
0.001725	0.0255723	
0.00173	0.0248503	
0.001735	0.0241021	
0.00174	0.0233244	
0.001745	0.0226117	
0.00175	0.0219754	
0.001755	0.0213721	
0.00176	0.0208191	
0.001765	0.0202779	
0.00177	0.019675	
0.001775	0.0189649	
0.00178	0.0181701	
0.001785	0.0173571	
0.00179	0.0165705	
0.001795	0.015791	
0.0018	0.014958	
0.001805	0.0140816	
0.00181	0.0132179	
0.001815	0.0124512	
0.00182	0.011832	
0.001825	0.011292	
0.00183	0.0107821	
0.001835	0.0102687	
0.00184	0.00968223	
0.001845	0.0090277	
0.00185	0.00840684	
0.001855	0.00783753	
0.00186	0.00723406	
0.001865	0.00668416	
0.00187	0.00624312	
0.001875	0.00575211	
0.00188	0.0051563	
0.001885	0.00447204	
0.00189	0.00366676	
0.001895	0.00277223	
0.0019	0.00186117	
0.001905	0.000982292	
0.00191	0.000166211	
0.001915	-0.00056987	
0.00192	-0.00126592	
0.001925	-0.00199773	
0.00193	-0.00276604	
0.001935	-0.00347454	
0.00194	-0.00401503	
0.001945	-0.00441917	
0.00195	-0.00480936	
0.001955	-0.00521945	
0.00196	-0.00576586	
0.001965	-0.00651891	
0.00197	-0.00722999	
0.001975	-0.00778469	
0.00198	-0.00830513	
0.001985	-0.00882588	
0.00199	-0.00932222	
0.001995	-0.00977898	
0.002	-0.010188	
0.002005	-0.0105463	
0.00201	-0.0108541	
0.002015	-0.0111617	
0.00202	-0.011502	
0.002025	-0.0118479	
0.00203	-0.0121811	
0.002035	-0.0124901	
0.00204	-0.0128162	
0.002045	-0.0131855	
0.00205	-0.013566	
0.002055	-0.0139833	
0.00206	-0.0145002	
0.002065	-0.0150584	
0.00207	-0.0155223	
0.002075	-0.0159021	
0.00208	-0.0162561	
0.002085	-0.0165287	
0.00209	-0.0166872	
0.002095	-0.016763	
0.0021	-0.0168283	
0.002105	-0.0169785	
0.00211	-0.0172252	
0.002115	-0.0174764	
0.00212	-0.0176235	
0.002125	-0.0176475	
0.00213	-0.0176367	
0.002135	-0.0176986	
0.00214	-0.0178055	
0.002145	-0.0178895	
0.00215	-0.0179543	
0.002155	-0.0178609	
0.00216	-0.0175725	
0.002165	-0.0173118	
0.00217	-0.0171292	
0.002175	-0.0170067	
0.00218	-0.0170247	
0.002185	-0.0171821	
0.00219	-0.0174239	
0.002195	-0.0177099	
0.0022	-0.0180116	
0.002205	-0.0183568	
0.00221	-0.018762	
0.002215	-0.01914	
0.00222	-0.0193871	
0.002225	-0.0194887	
0.00223	-0.0195371	
0.002235	-0.0195481	
0.00224	-0.0194389	
0.002245	-0.0192556	
0.00225	-0.0191271	
0.002255	-0.0190885	
0.00226	-0.0191109	
0.002265	-0.0191724	
0.00227	-0.0192094	
0.002275	-0.0191333	
0.00228	-0.0189387	
0.002285	-0.0186753	
0.00229	-0.0183788	
0.002295	-0.0180746	
0.0023	-0.0177797	
0.002305	-0.0175049	
0.00231	-0.0172564	
0.002315	-0.0170369	
0.00232	-0.0167994	
0.002325	-0.0165137	
0.00233	-0.0162098	
0.002335	-0.0158607	
0.00234	-0.0154507	
0.002345	-0.0150201	
0.00235	-0.0145961	
0.002355	-0.0141492	
0.00236	-0.013613	
0.002365	-0.0130435	
0.00237	-0.0124789	
0.002375	-0.011754	
0.00238	-0.0107677	
0.002385	-0.00956058	
0.00239	-0.00816986	
0.002395	-0.0066288	
0.0024	-0.00491891	
0.002405	-0.00303596	
0.00241	-0.00108043	
0.002415	0.000830457	
0.00242	0.00285921	
0.002425	0.00534508	
0.00243	0.00825244	
0.002435	0.0113002	
0.00244	0.0143439	
0.002445	0.0173361	
0.00245	0.0202002	
0.002455	0.0228921	
0.00246	0.0254381	
0.002465	0.027815	
0.00247	0.0300156	
0.002475	0.0321384	
0.00248	0.0342047	
0.002485	0.0361358	
0.00249	0.0379342	
0.002495	0.0396549	
0.0025	0.0412907	
0.002505	0.042793	
0.00251	0.0441363	
0.002515	0.0453588	
0.00252	0.0465863	
0.002525	0.0478068	
0.00253	0.0489172	
0.002535	0.0499501	
0.00254	0.0509782	
0.002545	0.0520494	
0.00255	0.0531461	
0.002555	0.0542551	
0.00256	0.0554149	
0.002565	0.056696	
0.00257	0.058139	
0.002575	0.0596205	
0.00258	0.0609623	
0.002585	0.062101	
0.00259	0.0630994	
0.002595	0.0640056	
0.0026	0.0648558	
0.002605	0.0656763	
0.00261	0.0664384	
0.002615	0.0671735	
0.00262	0.0679036	
0.002625	0.0685959	
0.00263	0.0692304	
0.002635	0.0698444	
0.00264	0.070511	
0.002645	0.0712281	
0.00265	0.0719447	
0.002655	0.0726271	
0.00266	0.0732546	
0.002665	0.0738163	
0.00267	0.0743079	
0.002675	0.0747302	
0.00268	0.0750868	
0.002685	0.0753831	
0.00269	0.0756257	
0.002695	0.0758215	
0.0027	0.0760246	
0.002705	0.0762705	
0.00271	0.0764854	
0.002715	0.0766698	
0.00272	0.0768728	
0.002725	0.0770785	
0.00273	0.0772762	
0.002735	0.0774594	
0.00274	0.0776718	
0.002745	0.077941	
0.00275	0.0782349	
0.002755	0.0785312	
0.00276	0.078815	
0.002765	0.0792198	
0.00277	0.0798278	
0.002775	0.0803985	
0.00278	0.0807274	
0.002785	0.0807863	
0.00279	0.0806643	
0.002795	0.0805239	
0.0028	0.0803781	
0.002805	0.0801405	
0.00281	0.079806	
0.002815	0.0794235	
0.00282	0.0790275	
0.002825	0.0786412	
0.00283	0.0782797	
0.002835	0.0779516	
0.00284	0.0776134	
0.002845	0.0771896	
0.00285	0.0767294	
0.002855	0.0763144	
0.00286	0.0759014	
0.002865	0.0754617	
0.00287	0.0749776	
0.002875	0.0744872	
0.00288	0.0740633	
0.002885	0.0736558	
0.00289	0.0732308	
0.002895	0.0727669	
0.0029	0.0722518	
0.002905	0.0717271	
0.00291	0.0711736	
0.002915	0.0705796	
0.00292	0.069987	
0.002925	0.0693759	
0.00293	0.0686864	
0.002935	0.0678827	
0.00294	0.0669942	
0.002945	0.0660918	
0.00295	0.065223	
0.002955	0.0643698	
0.00296	0.0635198	
0.002965	0.0627121	
0.00297	0.0619229	
0.002975	0.0611357	
0.00298	0.0603395	
0.002985	0.05948	
0.00299	0.0585719	
0.002995	0.0576747	
0.003	0.0567795	
0.003005	0.055833	
0.00301	0.0548498	
0.003015	0.053889	
0.00302	0.0529408	
0.003025	0.0519508	
0.00303	0.0509324	
0.003035	0.049991	
0.00304	0.0491925	
0.003045	0.0484784	
0.00305	0.0477587	
0.003055	0.0469742	
0.00306	0.0460891	
0.003065	0.0450844	
0.00307	0.0439058	
0.003075	0.0426207	
0.00308	0.0414688	
0.003085	0.0404592	
0.00309	0.0394961	
0.003095	0.0386092	
0.0031	0.037767	
0.003105	0.0369465	
0.00311	0.0361316	
0.003115	0.035264	
0.00312	0.0343549	
0.003125	0.0334617	
0.00313	0.032621	
0.003135	0.0318073	
0.00314	0.0309548	
0.003145	0.0301169	
0.00315	0.029376	
0.003155	0.0286864	
0.00316	0.0280158	
0.003165	0.0273418	
0.00317	0.0266025	
0.003175	0.0258551	
0.00318	0.0251851	
0.003185	0.0245505	
0.00319	0.023874	
0.003195	0.0231069	
0.0032	0.0222687	
0.003205	0.0214234	
0.00321	0.0206134	
0.003215	0.0198649	
0.00322	0.0191448	
0.003225	0.0183825	
0.00323	0.0175809	
0.003235	0.0167912	
0.00324	0.0159992	
0.003245	0.0151957	
0.00325	0.0144225	
0.003255	0.0136584	
0.00326	0.0128888	
0.003265	0.0121046	
0.00327	0.0113002	
0.003275	0.0105205	
0.00328	0.0097941	
0.003285	0.00913711	
0.00329	0.0084619	
0.003295	0.00771155	
0.0033	0.00694714	
0.003305	0.00620962	
0.00331	0.00552471	
0.003315	0.00485935	
0.00332	0.00414328	
0.003325	0.00333257	
0.00333	0.00245027	
0.003335	0.00161003	
0.00334	0.000884804	
0.003345	0.000222176	
0.00335	-0.000415374	
0.003355	-0.00100623	
0.00336	-0.0015859	
0.003365	-0.00222583	
0.00337	-0.00287524	
0.003375	-0.00331004	
0.00338	-0.0034877	
0.003385	-0.00367755	
0.00339	-0.00400907	
0.003395	-0.00441832	
0.0034	-0.004907	
0.003405	-0.00552001	
0.00341	-0.00623353	
0.003415	-0.00697958	
0.00342	-0.00771179	
0.003425	-0.00840024	
0.00343	-0.00902728	
0.003435	-0.00958417	
0.00344	-0.010116	
0.003445	-0.0107012	
0.00345	-0.0113415	
0.003455	-0.0119878	
0.00346	-0.0126075	
0.003465	-0.0131804	
0.00347	-0.0137428	
0.003475	-0.0143193	
0.00348	-0.0148302	
0.003485	-0.0152737	
0.00349	-0.0157469	
0.003495	-0.0162648	
0.0035	-0.0167402	
0.003505	-0.0171175	
0.00351	-0.0174598	
0.003515	-0.0178104	
0.00352	-0.0181499	
0.003525	-0.018466	
0.00353	-0.0187517	
0.003535	-0.0190039	
0.00354	-0.0192221	
0.003545	-0.0194074	
0.00355	-0.0195624	
0.003555	-0.0196901	
0.00356	-0.0197937	
0.003565	-0.019924	
0.00357	-0.0201134	
0.003575	-0.0203327	
0.00358	-0.0205138	
0.003585	-0.0206137	
0.00359	-0.0207504	
0.003595	-0.0209999	
0.0036	-0.021312	
0.003605	-0.0216507	
0.00361	-0.0219907	
0.003615	-0.0222682	
0.00362	-0.0224437	
0.003625	-0.0225911	
0.00363	-0.0227607	
0.003635	-0.0229369	
0.00364	-0.023109	
0.003645	-0.0232228	
0.00365	-0.0232452	
0.003655	-0.0232539	
0.00366	-0.0233006	
0.003665	-0.0233701	
0.00367	-0.0234515	
0.003675	-0.0235368	
0.00368	-0.0235731	
0.003685	-0.0235279	
0.00369	-0.023431	
0.003695	-0.0232572	
0.0037	-0.0229933	
0.003705	-0.0227299	
0.00371	-0.022527	
0.003715	-0.022326	
0.00372	-0.0220882	
0.003725	-0.0218374	
0.00373	-0.0213997	
0.003735	-0.0204793	
0.00374	-0.0190464	
0.003745	-0.0172008	
0.00375	-0.0149802	
0.003755	-0.0124748	
0.00376	-0.00980499	
0.003765	-0.00705805	
0.00377	-0.00453276	
0.003775	-0.00255827	
0.00378	-0.00108787	
0.003785	-6.6912E-5	
0.00379	0.000514343	
0.003795	0.000778192	
0.0038	0.000820281	
0.003805	0.0007617	
0.00381	0.000687049	
0.003815	0.000605332	
0.00382	0.000570357	
0.003825	0.000710461	
0.00383	0.00110198	
0.003835	0.00168829	
0.00384	0.00247037	
0.003845	0.00353468	
0.00385	0.00487735	
0.003855	0.00648264	
0.00386	0.00832778	
0.003865	0.0102913	
0.00387	0.0122876	
0.003875	0.0143061	
0.00388	0.0162438	
0.003885	0.0176088	
0.00389	0.0201477	
0.003895	0.0252896	
0.0039	0.0296228	
0.003905	0.0310788	
0.00391	0.0307115	
0.003915	0.029397	
0.00392	0.0278053	
0.003925	0.0262489	
0.00393	0.0249319	
0.003935	0.0239776	
0.00394	0.0233551	
0.003945	0.0230285	
0.00395	0.0230073	
0.003955	0.0232838	
0.00396	0.0238383	
0.003965	0.0245976	
0.00397	0.0255035	
0.003975	0.0266058	
0.00398	0.0279281	
0.003985	0.029428	
0.00399	0.031069	
0.003995	0.0327731	
0.004	0.0344382	
0.004005	0.0360462	
0.00401	0.0376358	
0.004015	0.039233	
0.00402	0.0408072	
0.004025	0.0422919	
0.00403	0.0437423	
0.004035	0.0452441	
0.00404	0.0467089	
0.004045	0.0480324	
0.00405	0.0492951	
0.004055	0.0505532	
0.00406	0.0517488	
0.004065	0.052894	
0.00407	0.0539995	
0.004075	0.0550264	
0.00408	0.0559531	
0.004085	0.0568172	
0.00409	0.0576944	
0.004095	0.0585387	
0.0041	0.0592738	
0.004105	0.0599973	
0.00411	0.0607739	
0.004115	0.0615488	
0.00412	0.0623335	
0.004125	0.063135	
0.00413	0.0639098	
0.004135	0.0646303	
0.00414	0.0652808	
0.004145	0.0658545	
0.00415	0.066398	
0.004155	0.0669433	
0.00416	0.0674166	
0.004165	0.0677723	
0.00417	0.0680339	
0.004175	0.0682208	
0.00418	0.0683974	
0.004185	0.0686062	
0.00419	0.0687789	
0.004195	0.0688721	
0.0042	0.0689085	
0.004205	0.0689532	
0.00421	0.0690488	
0.004215	0.069126	
0.00422	0.0691397	
0.004225	0.0691111	
0.00423	0.0690558	
0.004235	0.0689856	
0.00424	0.0689088	
0.004245	0.0688314	
0.00425	0.0687572	
0.004255	0.0686886	
0.00426	0.068627	
0.004265	0.0685728	
0.00427	0.0685262	
0.004275	0.0684392	
0.00428	0.0682346	
0.004285	0.0679622	
0.00429	0.0676579	
0.004295	0.0672044	
0.0043	0.0665789	
0.004305	0.0658696	
0.00431	0.0651386	
0.004315	0.0644278	
0.00432	0.0637639	
0.004325	0.0631625	
0.00433	0.0626306	
0.004335	0.0621698	
0.00434	0.0617775	
0.004345	0.0614016	
0.00435	0.0609591	
0.004355	0.060446	
0.00436	0.0599108	
0.004365	0.0593863	
0.00437	0.0588935	
0.004375	0.0584451	
0.00438	0.0580471	
0.004385	0.0577487	
0.00439	0.0575301	
0.004395	0.0572318	
0.0044	0.0568001	
0.004405	0.0563007	
0.00441	0.0557329	
0.004415	0.0550517	
0.00442	0.0542329	
0.004425	0.0533146	
0.00443	0.0524216	
0.004435	0.0516351	
0.00444	0.050956	
0.004445	0.0503323	
0.00445	0.0496795	
0.004455	0.0489434	
0.00446	0.0481397	
0.004465	0.0473293	
0.00447	0.0465054	
0.004475	0.045664	
0.00448	0.0448508	
0.004485	0.0440947	
0.00449	0.0433645	
0.004495	0.0425908	
0.0045	0.0417775	
0.004505	0.040929	
0.00451	0.0400499	
0.004515	0.0391922	
0.00452	0.0383417	
0.004525	0.0374885	
0.00453	0.0367216	
0.004535	0.0360952	
0.00454	0.0355437	
0.004545	0.0349725	
0.00455	0.0343679	
0.004555	0.0338173	
0.00456	0.0333283	
0.004565	0.0328081	
0.00457	0.0322444	
0.004575	0.0316311	
0.00458	0.030919	
0.004585	0.0301279	
0.00459	0.0293222	
0.004595	0.0284974	
0.0046	0.0276515	
0.004605	0.0268317	
0.00461	0.0260203	
0.004615	0.0252053	
0.00462	0.0244266	
0.004625	0.0237084	
0.00463	0.0230643	
0.004635	0.0224519	
0.00464	0.0217943	
0.004645	0.0210904	
0.00465	0.0203894	
0.004655	0.0197234	
0.00466	0.0191119	
0.004665	0.0185654	
0.00467	0.0179924	
0.004675	0.0172865	
0.00468	0.0165264	
0.004685	0.0157664	
0.00469	0.0149474	
0.004695	0.0140808	
0.0047	0.0132236	
0.004705	0.0124133	
0.00471	0.0116722	
0.004715	0.0109642	
0.00472	0.0102641	
0.004725	0.00960215	
0.00473	0.00894925	
0.004735	0.00828562	
0.00474	0.00764632	
0.004745	0.00700575	
0.00475	0.00629957	
0.004755	0.00553601	
0.00476	0.00477071	
0.004765	0.00404048	
0.00477	0.0033679	
0.004775	0.00276514	
0.00478	0.00223693	
0.004785	0.00173533	
0.00479	0.00117991	
0.004795	0.000567756	
0.0048	-5.28608E-5	
0.004805	-0.000649702	
0.00481	-0.00120264	
0.004815	-0.00174801	
0.00482	-0.00231013	
0.004825	-0.00285671	
0.00483	-0.00341472	
0.004835	-0.00400142	
0.00484	-0.00457928	
0.004845	-0.00512398	
0.00485	-0.00566859	
0.004855	-0.00623492	
0.00486	-0.00674125	
0.004865	-0.00718406	
0.00487	-0.00765913	
0.004875	-0.00813299	
0.00488	-0.00853611	
0.004885	-0.00892106	
0.00489	-0.00932335	
0.004895	-0.00976558	
0.0049	-0.0102608	
0.004905	-0.0107199	
0.00491	-0.0110861	
0.004915	-0.0113735	
0.00492	-0.0115956	
0.004925	-0.0118115	
0.00493	-0.0121082	
0.004935	-0.0124918	
0.00494	-0.0128668	
0.004945	-0.0131235	
0.00495	-0.01329	
0.004955	-0.0134842	
0.00496	-0.0137351	
0.004965	-0.0140114	
0.00497	-0.014339	
0.004975	-0.01478	
0.00498	-0.0152748	
0.004985	-0.0156867	
0.00499	-0.0160245	
0.004995	-0.0163449	
0.005	-0.0165912	
0.005005	-0.016777	
0.00501	-0.0169616	
0.005015	-0.0170891	
0.00502	-0.0171255	
0.005025	-0.0171477	
