Time - Plot 0	Amplitude - Plot 0	
0	0.0668462	
5E-6	0.0674916	
1E-5	0.0681	
1.5E-5	0.0687026	
2E-5	0.0692731	
2.5E-5	0.0697953	
3E-5	0.0702135	
3.5E-5	0.0704957	
4E-5	0.0707226	
4.5E-5	0.0709497	
5E-5	0.0713088	
5.5E-5	0.0719281	
6E-5	0.0725947	
6.5E-5	0.0730707	
7E-5	0.073351	
7.5E-5	0.0735366	
8E-5	0.073746	
8.5E-5	0.0740087	
9E-5	0.0742942	
9.5E-5	0.0745812	
0.0001	0.0748556	
0.000105	0.0751562	
0.00011	0.0755075	
0.000115	0.075828	
0.00012	0.0760655	
0.000125	0.0762371	
0.00013	0.0763571	
0.000135	0.0764373	
0.00014	0.0764877	
0.000145	0.0765158	
0.00015	0.0764805	
0.000155	0.0763575	
0.00016	0.07623	
0.000165	0.0761056	
0.00017	0.0758941	
0.000175	0.0755875	
0.00018	0.0752328	
0.000185	0.0748632	
0.00019	0.0745011	
0.000195	0.0741612	
0.0002	0.073852	
0.000205	0.0735776	
0.00021	0.0732917	
0.000215	0.0729166	
0.00022	0.0724529	
0.000225	0.0719527	
0.00023	0.0714046	
0.000235	0.0708032	
0.00024	0.0702428	
0.000245	0.0697833	
0.00025	0.0694122	
0.000255	0.0690694	
0.00026	0.0686663	
0.000265	0.068195	
0.00027	0.0677011	
0.000275	0.0672156	
0.00028	0.066711	
0.000285	0.0661228	
0.00029	0.0654596	
0.000295	0.0647783	
0.0003	0.0641174	
0.000305	0.0634536	
0.00031	0.0627243	
0.000315	0.0619862	
0.00032	0.0613248	
0.000325	0.0606977	
0.00033	0.0600278	
0.000335	0.0592663	
0.00034	0.0584329	
0.000345	0.0575915	
0.00035	0.0567846	
0.000355	0.0560387	
0.00036	0.0553206	
0.000365	0.0545599	
0.00037	0.0537119	
0.000375	0.052799	
0.00038	0.0518864	
0.000385	0.0509697	
0.00039	0.0500461	
0.000395	0.0491616	
0.0004	0.0482972	
0.000405	0.0474394	
0.00041	0.0466265	
0.000415	0.0458342	
0.00042	0.0450453	
0.000425	0.0442961	
0.00043	0.0435608	
0.000435	0.0427746	
0.00044	0.0419443	
0.000445	0.0411242	
0.00045	0.0403497	
0.000455	0.0395943	
0.00046	0.0387922	
0.000465	0.0379497	
0.00047	0.0370729	
0.000475	0.0361673	
0.00048	0.0352857	
0.000485	0.034414	
0.00049	0.0335425	
0.000495	0.0326649	
0.0005	0.0317297	
0.000505	0.0307531	
0.00051	0.0297956	
0.000515	0.0288958	
0.00052	0.0280766	
0.000525	0.0273019	
0.00053	0.026498	
0.000535	0.0256179	
0.00054	0.0246815	
0.000545	0.0237524	
0.00055	0.0228244	
0.000555	0.0218936	
0.00056	0.0209574	
0.000565	0.0200144	
0.00057	0.0191115	
0.000575	0.0182302	
0.00058	0.0173573	
0.000585	0.0165312	
0.00059	0.0157751	
0.000595	0.0150533	
0.0006	0.0142932	
0.000605	0.0134963	
0.00061	0.0127128	
0.000615	0.0119752	
0.00062	0.0113028	
0.000625	0.0107051	
0.00063	0.0101374	
0.000635	0.00952135	
0.00064	0.00885495	
0.000645	0.00813935	
0.00065	0.00733008	
0.000655	0.0064498	
0.00066	0.0055168	
0.000665	0.00454563	
0.00067	0.00364276	
0.000675	0.00287517	
0.00068	0.00223307	
0.000685	0.00165655	
0.00069	0.00110301	
0.000695	0.000590792	
0.0007	8.25164E-5	
0.000705	-0.000446656	
0.00071	-0.00101211	
0.000715	-0.00162229	
0.00072	-0.00218554	
0.000725	-0.00269123	
0.00073	-0.00318258	
0.000735	-0.00364122	
0.00074	-0.00415169	
0.000745	-0.00476725	
0.00075	-0.00542299	
0.000755	-0.00607421	
0.00076	-0.00669164	
0.000765	-0.00730513	
0.00077	-0.00793454	
0.000775	-0.00854468	
0.00078	-0.00911325	
0.000785	-0.00962752	
0.00079	-0.0100817	
0.000795	-0.0105222	
0.0008	-0.0110281	
0.000805	-0.0116005	
0.00081	-0.0121899	
0.000815	-0.0127625	
0.00082	-0.013297	
0.000825	-0.013781	
0.00083	-0.0142089	
0.000835	-0.0145796	
0.00084	-0.0149425	
0.000845	-0.0153307	
0.00085	-0.0156696	
0.000855	-0.01596	
0.00086	-0.0162998	
0.000865	-0.0167036	
0.00087	-0.0171306	
0.000875	-0.0175525	
0.00088	-0.0179512	
0.000885	-0.0183158	
0.00089	-0.0186406	
0.000895	-0.0189238	
0.0009	-0.0191661	
0.000905	-0.0193701	
0.00091	-0.0195392	
0.000915	-0.0196772	
0.00092	-0.0197882	
0.000925	-0.0198762	
0.00093	-0.0199448	
0.000935	-0.0199974	
0.00094	-0.020037	
0.000945	-0.0200661	
0.00095	-0.0201344	
0.000955	-0.0203205	
0.00096	-0.0206229	
0.000965	-0.0209402	
0.00097	-0.0212047	
0.000975	-0.0214696	
0.00098	-0.0217696	
0.000985	-0.022031	
0.00099	-0.0221596	
0.000995	-0.0221946	
0.001	-0.0222137	
0.001005	-0.0221738	
0.00101	-0.0220495	
0.001015	-0.0218753	
0.00102	-0.0216766	
0.001025	-0.0214709	
0.00103	-0.0213181	
0.001035	-0.0212548	
0.00104	-0.0212535	
0.001045	-0.0212932	
0.00105	-0.0213105	
0.001055	-0.0212647	
0.00106	-0.021322	
0.001065	-0.0215873	
0.00107	-0.0218344	
0.001075	-0.0219154	
0.00108	-0.0218354	
0.001085	-0.021558	
0.00109	-0.0211635	
0.001095	-0.0207581	
0.0011	-0.0203646	
0.001105	-0.0200452	
0.00111	-0.0197896	
0.001115	-0.0194932	
0.00112	-0.0191363	
0.001125	-0.0187565	
0.00113	-0.0183795	
0.001135	-0.0179747	
0.00114	-0.0175231	
0.001145	-0.017062	
0.00115	-0.016569	
0.001155	-0.0159831	
0.00116	-0.0152211	
0.001165	-0.0140939	
0.00117	-0.0124463	
0.001175	-0.0103911	
0.00118	-0.00806915	
0.001185	-0.00549105	
0.00119	-0.00272338	
0.001195	0.000133452	
0.0012	0.00300901	
0.001205	0.00585599	
0.00121	0.00864453	
0.001215	0.0114053	
0.00122	0.0141597	
0.001225	0.0168272	
0.00123	0.0193588	
0.001235	0.0217761	
0.00124	0.0240512	
0.001245	0.0261251	
0.00125	0.0280156	
0.001255	0.0298384	
0.00126	0.031673	
0.001265	0.0334761	
0.00127	0.0352683	
0.001275	0.0371586	
0.00128	0.0391193	
0.001285	0.0410337	
0.00129	0.0428744	
0.001295	0.0446747	
0.0013	0.0463632	
0.001305	0.0478505	
0.00131	0.0491824	
0.001315	0.0504438	
0.00132	0.0516943	
0.001325	0.0529734	
0.00133	0.0542584	
0.001335	0.0554866	
0.00134	0.0566668	
0.001345	0.0578069	
0.00135	0.0589144	
0.001355	0.0600429	
0.00136	0.061132	
0.001365	0.0620009	
0.00137	0.0626361	
0.001375	0.0632772	
0.00138	0.0640345	
0.001385	0.0648326	
0.00139	0.0656674	
0.001395	0.066582	
0.0014	0.0676011	
0.001405	0.0686882	
0.00141	0.069769	
0.001415	0.0707943	
0.00142	0.0717347	
0.001425	0.0725745	
0.00143	0.0733083	
0.001435	0.073985	
0.00144	0.0746872	
0.001445	0.0754205	
0.00145	0.0761396	
0.001455	0.0768153	
0.00146	0.0774305	
0.001465	0.0779767	
0.00147	0.078499	
0.001475	0.079076	
0.00148	0.0796143	
0.001485	0.0799589	
0.00149	0.0802071	
0.001495	0.0805225	
0.0015	0.080915	
0.001505	0.0813396	
0.00151	0.0817654	
0.001515	0.0821718	
0.00152	0.0824986	
0.001525	0.08271	
0.00153	0.0828829	
0.001535	0.0830696	
0.00154	0.0832092	
0.001545	0.0832635	
0.00155	0.0832591	
0.001555	0.0832161	
0.00156	0.0831972	
0.001565	0.0832427	
0.00157	0.0833285	
0.001575	0.0834368	
0.00158	0.0835073	
0.001585	0.083502	
0.00159	0.0834469	
0.001595	0.0833141	
0.0016	0.0830888	
0.001605	0.0828132	
0.00161	0.0825174	
0.001615	0.0822223	
0.00162	0.0818942	
0.001625	0.0814646	
0.00163	0.080941	
0.001635	0.0803801	
0.00164	0.0797736	
0.001645	0.0791183	
0.00165	0.0784617	
0.001655	0.0777402	
0.00166	0.0769151	
0.001665	0.0761082	
0.00167	0.0753989	
0.001675	0.0747877	
0.00168	0.0742699	
0.001685	0.0737907	
0.00169	0.0732646	
0.001695	0.0726848	
0.0017	0.0720972	
0.001705	0.0714845	
0.00171	0.0707893	
0.001715	0.0700251	
0.00172	0.0692514	
0.001725	0.0684606	
0.00173	0.0676008	
0.001735	0.0666886	
0.00174	0.0657851	
0.001745	0.06493	
0.00175	0.0641473	
0.001755	0.0634494	
0.00176	0.0627927	
0.001765	0.0620994	
0.00177	0.061367	
0.001775	0.0606436	
0.00178	0.0599128	
0.001785	0.0591165	
0.00179	0.0582673	
0.001795	0.0573758	
0.0018	0.0564034	
0.001805	0.0554238	
0.00181	0.0545333	
0.001815	0.053696	
0.00182	0.052886	
0.001825	0.0520371	
0.00183	0.0510602	
0.001835	0.0500927	
0.00184	0.049272	
0.001845	0.0485396	
0.00185	0.0478049	
0.001855	0.0470084	
0.00186	0.0461612	
0.001865	0.0453207	
0.00187	0.0444769	
0.001875	0.0435757	
0.00188	0.0427267	
0.001885	0.042	
0.00189	0.0411981	
0.001895	0.0402419	
0.0019	0.0392293	
0.001905	0.0382272	
0.00191	0.0372796	
0.001915	0.0363652	
0.00192	0.0354208	
0.001925	0.0344538	
0.00193	0.0335176	
0.001935	0.032646	
0.00194	0.0318107	
0.001945	0.0309438	
0.00195	0.0300495	
0.001955	0.0291318	
0.00196	0.0281472	
0.001965	0.0271174	
0.00197	0.0261065	
0.001975	0.0251559	
0.00198	0.0242425	
0.001985	0.0233493	
0.00199	0.0225116	
0.001995	0.0217026	
0.002	0.0209033	
0.002005	0.0201482	
0.00201	0.0194104	
0.002015	0.0186238	
0.00202	0.0177947	
0.002025	0.0169769	
0.00203	0.0161575	
0.002035	0.0153285	
0.00204	0.0145797	
0.002045	0.0139193	
0.00205	0.0132534	
0.002055	0.0125677	
0.00206	0.0119015	
0.002065	0.0112796	
0.00207	0.0107163	
0.002075	0.0101708	
0.00208	0.00956777	
0.002085	0.00890776	
0.00209	0.00819388	
0.002095	0.00738317	
0.0021	0.00649943	
0.002105	0.00560933	
0.00211	0.00475715	
0.002115	0.00392272	
0.00212	0.00304441	
0.002125	0.00213117	
0.00213	0.00123809	
0.002135	0.000448073	
0.00214	-0.000189081	
0.002145	-0.000742846	
0.00215	-0.00126297	
0.002155	-0.00173632	
0.00216	-0.00220398	
0.002165	-0.00274082	
0.00217	-0.00334544	
0.002175	-0.00396614	
0.00218	-0.00456809	
0.002185	-0.00527181	
0.00219	-0.00619949	
0.002195	-0.00718342	
0.0022	-0.00806283	
0.002205	-0.00883174	
0.00221	-0.00949142	
0.002215	-0.0100479	
0.00222	-0.0105575	
0.002225	-0.0110597	
0.00223	-0.0115331	
0.002235	-0.0120129	
0.00224	-0.0125216	
0.002245	-0.0130253	
0.00225	-0.0135019	
0.002255	-0.0139382	
0.00226	-0.0143271	
0.002265	-0.014714	
0.00227	-0.0151288	
0.002275	-0.0153998	
0.00228	-0.0154205	
0.002285	-0.0154178	
0.00229	-0.01559	
0.002295	-0.0158693	
0.0023	-0.016111	
0.002305	-0.0163165	
0.00231	-0.0165834	
0.002315	-0.0169257	
0.00232	-0.0173016	
0.002325	-0.0176818	
0.00233	-0.0180469	
0.002335	-0.0184323	
0.00234	-0.0188603	
0.002345	-0.0192488	
0.00235	-0.0195452	
0.002355	-0.0197669	
0.00236	-0.0199288	
0.002365	-0.0200437	
0.00237	-0.0201222	
0.002375	-0.0201729	
0.00238	-0.0202504	
0.002385	-0.0204371	
0.00239	-0.0207343	
0.002395	-0.0209479	
0.0024	-0.0209536	
0.002405	-0.0209645	
0.00241	-0.021121	
0.002415	-0.021366	
0.00242	-0.0216103	
0.002425	-0.0217951	
0.00243	-0.0219318	
0.002435	-0.0220304	
0.00244	-0.0220992	
0.002445	-0.0220976	
0.00245	-0.0220021	
0.002455	-0.0218967	
0.00246	-0.0218373	
0.002465	-0.0218111	
0.00247	-0.0218555	
0.002475	-0.0219444	
0.00248	-0.0219633	
0.002485	-0.0219352	
0.00249	-0.0218774	
0.002495	-0.0217078	
0.0025	-0.0214724	
0.002505	-0.0212047	
0.00251	-0.0208809	
0.002515	-0.020583	
0.00252	-0.0203162	
0.002525	-0.020035	
0.00253	-0.0197577	
0.002535	-0.0194484	
0.00254	-0.0190852	
0.002545	-0.0187511	
0.00255	-0.0184996	
0.002555	-0.0183144	
0.00256	-0.0181817	
0.002565	-0.0180424	
0.00257	-0.0178577	
0.002575	-0.0176519	
0.00258	-0.0173943	
0.002585	-0.0170197	
0.00259	-0.0165382	
0.002595	-0.0160089	
0.0026	-0.0154731	
0.002605	-0.0149109	
0.00261	-0.0142153	
0.002615	-0.013322	
0.00262	-0.0122454	
0.002625	-0.0110515	
0.00263	-0.0098367	
0.002635	-0.00857046	
0.00264	-0.0071876	
0.002645	-0.00569819	
0.00265	-0.0041139	
0.002655	-0.00244691	
0.00266	-0.000709168	
0.002665	0.0010881	
0.00267	0.00293468	
0.002675	0.00477398	
0.00268	0.00656901	
0.002685	0.00839256	
0.00269	0.0104339	
0.002695	0.012855	
0.0027	0.0156021	
0.002705	0.0185293	
0.00271	0.0214844	
0.002715	0.0243181	
0.00272	0.0269852	
0.002725	0.0295114	
0.00273	0.0318728	
0.002735	0.0340138	
0.00274	0.0359558	
0.002745	0.0377698	
0.00275	0.0395086	
0.002755	0.0412107	
0.00276	0.0428557	
0.002765	0.0443376	
0.00277	0.0455944	
0.002775	0.0467384	
0.00278	0.047849	
0.002785	0.048885	
0.00279	0.0498704	
0.002795	0.0508708	
0.0028	0.051929	
0.002805	0.0530227	
0.00281	0.0540881	
0.002815	0.0550844	
0.00282	0.0560357	
0.002825	0.0570072	
0.00283	0.0579938	
0.002835	0.0589435	
0.00284	0.0598716	
0.002845	0.0607891	
0.00285	0.0616562	
0.002855	0.0624966	
0.00286	0.0633272	
0.002865	0.064112	
0.00287	0.0648295	
0.002875	0.0654687	
0.00288	0.0660736	
0.002885	0.0666748	
0.00289	0.067245	
0.002895	0.067768	
0.0029	0.068235	
0.002905	0.0686906	
0.00291	0.0691646	
0.002915	0.0696284	
0.00292	0.0700634	
0.002925	0.070459	
0.00293	0.0707623	
0.002935	0.0709428	
0.00294	0.0710815	
0.002945	0.0712334	
0.00295	0.0714345	
0.002955	0.0717536	
0.00296	0.0721353	
0.002965	0.0724453	
0.00297	0.0726932	
0.002975	0.0729361	
0.00298	0.0731641	
0.002985	0.0733716	
0.00299	0.0735082	
0.002995	0.073544	
0.003	0.0736068	
0.003005	0.0737795	
0.00301	0.0739213	
0.003015	0.0739411	
0.00302	0.0738794	
0.003025	0.073767	
0.00303	0.0736264	
0.003035	0.0734264	
0.00304	0.0731015	
0.003045	0.0726622	
0.00305	0.0721682	
0.003055	0.0716615	
0.00306	0.0711704	
0.003065	0.0706652	
0.00307	0.0701272	
0.003075	0.0695929	
0.00308	0.0690864	
0.003085	0.0686222	
0.00309	0.0681602	
0.003095	0.067674	
0.0031	0.0671474	
0.003105	0.0665714	
0.00311	0.0659902	
0.003115	0.0653854	
0.00312	0.0649364	
0.003125	0.0648014	
0.00313	0.0646421	
0.003135	0.0642367	
0.00314	0.0636883	
0.003145	0.0630238	
0.00315	0.0623144	
0.003155	0.0616563	
0.00316	0.0610158	
0.003165	0.0603695	
0.00317	0.0597025	
0.003175	0.0589583	
0.00318	0.0581508	
0.003185	0.0573399	
0.00319	0.056565	
0.003195	0.055803	
0.0032	0.0549905	
0.003205	0.054088	
0.00321	0.0531213	
0.003215	0.052158	
0.00322	0.0511951	
0.003225	0.0502303	
0.00323	0.0492624	
0.003235	0.0482432	
0.00324	0.0471908	
0.003245	0.0461663	
0.00325	0.0452087	
0.003255	0.0443404	
0.00326	0.0435246	
0.003265	0.0426869	
0.00327	0.0418269	
0.003275	0.0409452	
0.00328	0.0400435	
0.003285	0.0392187	
0.00329	0.0384837	
0.003295	0.0377476	
0.0033	0.0369979	
0.003305	0.0362274	
0.00331	0.0353843	
0.003315	0.0344859	
0.00332	0.0335934	
0.003325	0.032747	
0.00333	0.0319236	
0.003335	0.0311067	
0.00334	0.0303327	
0.003345	0.0295761	
0.00335	0.0288192	
0.003355	0.0280979	
0.00336	0.0273867	
0.003365	0.0266206	
0.00337	0.0258547	
0.003375	0.0251251	
0.00338	0.0243113	
0.003385	0.0233854	
0.00339	0.0224294	
0.003395	0.0214513	
0.0034	0.0204572	
0.003405	0.0194997	
0.00341	0.0185641	
0.003415	0.0176396	
0.00342	0.0167661	
0.003425	0.0161578	
0.00343	0.0158956	
0.003435	0.0155889	
0.00344	0.0150296	
0.003445	0.0143303	
0.00345	0.0135717	
0.003455	0.0128099	
0.00346	0.0120344	
0.003465	0.0111916	
0.00347	0.0103443	
0.003475	0.00958155	
0.00348	0.00886313	
0.003485	0.00816038	
0.00349	0.00745367	
0.003495	0.00668269	
0.0035	0.00590582	
0.003505	0.00520933	
0.00351	0.00455125	
0.003515	0.00375948	
0.00352	0.00277441	
0.003525	0.00180354	
0.00353	0.000983031	
0.003535	0.000300468	
0.00354	-0.000306393	
0.003545	-0.000882172	
0.00355	-0.00141023	
0.003555	-0.00188183	
0.00356	-0.00229392	
0.003565	-0.00269481	
0.00357	-0.00316442	
0.003575	-0.00370467	
0.00358	-0.00426594	
0.003585	-0.00486206	
0.00359	-0.00550049	
0.003595	-0.00613664	
0.0036	-0.00674118	
0.003605	-0.00729629	
0.00361	-0.00784009	
0.003615	-0.00839825	
0.00362	-0.00893947	
0.003625	-0.00944393	
0.00363	-0.00990029	
0.003635	-0.0102083	
0.00364	-0.0103088	
0.003645	-0.0103629	
0.00365	-0.0104788	
0.003655	-0.0106776	
0.00366	-0.0110166	
0.003665	-0.0114322	
0.00367	-0.0118309	
0.003675	-0.0122473	
0.00368	-0.0127031	
0.003685	-0.0132109	
0.00369	-0.0137766	
0.003695	-0.014306	
0.0037	-0.0147865	
0.003705	-0.0153072	
0.00371	-0.0158772	
0.003715	-0.0164528	
0.00372	-0.0170048	
0.003725	-0.0174677	
0.00373	-0.01804	
0.003735	-0.0189426	
0.00374	-0.0198302	
0.003745	-0.0204282	
0.00375	-0.0207595	
0.003755	-0.0208516	
0.00376	-0.0208294	
0.003765	-0.0207802	
0.00377	-0.0207156	
0.003775	-0.020644	
0.00378	-0.020571	
0.003785	-0.0205482	
0.00379	-0.020607	
0.003795	-0.0206694	
0.0038	-0.0206836	
0.003805	-0.020713	
0.00381	-0.0207984	
0.003815	-0.0208693	
0.00382	-0.0209272	
0.003825	-0.0210688	
0.00383	-0.0212591	
0.003835	-0.0213772	
0.00384	-0.0213948	
0.003845	-0.0213926	
0.00385	-0.0214252	
0.003855	-0.0214315	
0.00386	-0.0214203	
0.003865	-0.0214455	
0.00387	-0.0214461	
0.003875	-0.0213828	
0.00388	-0.0212804	
0.003885	-0.0211571	
0.00389	-0.0210259	
0.003895	-0.0208955	
0.0039	-0.020772	
0.003905	-0.0206588	
0.00391	-0.0205578	
0.003915	-0.0204695	
0.00392	-0.0203939	
0.003925	-0.0203301	
0.00393	-0.0202297	
0.003935	-0.0200623	
0.00394	-0.0198586	
0.003945	-0.0195932	
0.00395	-0.0192521	
0.003955	-0.0188771	
0.00396	-0.0184976	
0.003965	-0.0181331	
0.00397	-0.0177956	
0.003975	-0.017492	
0.00398	-0.017225	
0.003985	-0.0169949	
0.00399	-0.0167523	
0.003995	-0.0163705	
0.004	-0.0157247	
0.004005	-0.0146503	
0.00401	-0.0130113	
0.004015	-0.0108398	
0.00402	-0.00822989	
0.004025	-0.00535924	
0.00403	-0.00245245	
0.004035	0.000340685	
0.00404	0.00297431	
0.004045	0.00547326	
0.00405	0.0078603	
0.004055	0.0102033	
0.00406	0.0125489	
0.004065	0.0148805	
0.00407	0.0171876	
0.004075	0.0194645	
0.00408	0.0217089	
0.004085	0.0238732	
0.00409	0.0259299	
0.004095	0.0279134	
0.0041	0.0298499	
0.004105	0.031759	
0.00411	0.0336071	
0.004115	0.0353752	
0.00412	0.037102	
0.004125	0.0387674	
0.00413	0.0405037	
0.004135	0.0424423	
0.00414	0.0443275	
0.004145	0.0459933	
0.00415	0.0475307	
0.004155	0.0489583	
0.00416	0.0502459	
0.004165	0.0514279	
0.00417	0.0525794	
0.004175	0.0537039	
0.00418	0.0548049	
0.004185	0.0558859	
0.00419	0.0569025	
0.004195	0.0578762	
0.0042	0.0588706	
0.004205	0.0599267	
0.00421	0.061021	
0.004215	0.0621363	
0.00422	0.0632603	
0.004225	0.0642892	
0.00423	0.0652069	
0.004235	0.0661028	
0.00424	0.0669895	
0.004245	0.0678283	
0.00425	0.0686433	
0.004255	0.0694992	
0.00426	0.0704365	
0.004265	0.0714308	
0.00427	0.0723682	
0.004275	0.073176	
0.00428	0.0739078	
0.004285	0.07465	
0.00429	0.0754114	
0.004295	0.0761019	
0.0043	0.076618	
0.004305	0.0769946	
0.00431	0.0773566	
0.004315	0.0777393	
0.00432	0.0781175	
0.004325	0.0784275	
0.00433	0.0786301	
0.004335	0.0788	
0.00434	0.0790354	
0.004345	0.0793502	
0.00435	0.0797027	
0.004355	0.0801107	
0.00436	0.0805362	
0.004365	0.0809054	
0.00437	0.0812676	
0.004375	0.0816557	
0.00438	0.0820424	
0.004385	0.0824099	
0.00439	0.0827474	
0.004395	0.0830016	
0.0044	0.0830938	
0.004405	0.0830748	
0.00441	0.0830309	
0.004415	0.0829727	
0.00442	0.0829078	
0.004425	0.0827941	
0.00443	0.0827485	
0.004435	0.0829878	
0.00444	0.0833085	
0.004445	0.0833824	
0.00445	0.0832427	
0.004455	0.0830162	
0.00446	0.0826957	
0.004465	0.0822333	
0.00447	0.0816516	
0.004475	0.0810189	
0.00448	0.0803824	
0.004485	0.0797735	
0.00449	0.0792116	
0.004495	0.0787073	
0.0045	0.0782172	
0.004505	0.0776647	
0.00451	0.0770496	
0.004515	0.0764223	
0.00452	0.0757691	
0.004525	0.0750822	
0.00453	0.0745007	
0.004535	0.0740636	
0.00454	0.0735998	
0.004545	0.0730454	
0.00455	0.0724573	
0.004555	0.0719225	
0.00456	0.0714955	
0.004565	0.0711124	
0.00457	0.0706812	
0.004575	0.0701436	
0.00458	0.0694663	
0.004585	0.0685862	
0.00459	0.067519	
0.004595	0.0664265	
0.0046	0.0654164	
0.004605	0.0645085	
0.00461	0.0637109	
0.004615	0.0629762	
0.00462	0.0622227	
0.004625	0.0613973	
0.00463	0.0605161	
0.004635	0.0596397	
0.00464	0.0587604	
0.004645	0.0578257	
0.00465	0.0568512	
0.004655	0.055944	
0.00466	0.0551241	
0.004665	0.0543056	
0.00467	0.053479	
0.004675	0.0526388	
0.00468	0.0517341	
0.004685	0.0507823	
0.00469	0.0498444	
0.004695	0.0489601	
0.0047	0.0481528	
0.004705	0.0473871	
0.00471	0.0465899	
0.004715	0.045762	
0.00472	0.0449532	
0.004725	0.0441476	
0.00473	0.0433347	
0.004735	0.0425078	
0.00474	0.0415684	
0.004745	0.0405515	
0.00475	0.0396268	
0.004755	0.0388066	
0.00476	0.037999	
0.004765	0.0371904	
0.00477	0.0364193	
0.004775	0.035662	
0.00478	0.0348544	
0.004785	0.0340044	
0.00479	0.0331667	
0.004795	0.032329	
0.0048	0.031436	
0.004805	0.0305012	
0.00481	0.0295831	
0.004815	0.0286718	
0.00482	0.0277607	
0.004825	0.0268927	
0.00483	0.0259991	
0.004835	0.0249883	
0.00484	0.0239481	
0.004845	0.0229852	
0.00485	0.0220712	
0.004855	0.0211853	
0.00486	0.0203121	
0.004865	0.0194412	
0.00487	0.018613	
0.004875	0.0178045	
0.00488	0.0169997	
0.004885	0.0161879	
0.00489	0.0153624	
0.004895	0.0145668	
0.0049	0.0138287	
0.004905	0.0131632	
0.00491	0.0125297	
0.004915	0.0118521	
0.00492	0.01113	
0.004925	0.0104602	
0.00493	0.00995166	
0.004935	0.00957347	
0.00494	0.00915653	
0.004945	0.00859114	
0.00495	0.00790709	
0.004955	0.00722468	
0.00496	0.00657563	
0.004965	0.00588421	
0.00497	0.00515002	
0.004975	0.00442235	
0.00498	0.0037334	
0.004985	0.00310256	
0.00499	0.00249235	
0.004995	0.00187705	
0.005	0.00128751	
0.005005	0.000695297	
0.00501	8.1798E-5	
0.005015	-0.000564254	
0.00502	-0.00124875	
0.005025	-0.00178361	
0.00503	-0.00209944	
0.005035	-0.00244606	
0.00504	-0.00289166	
0.005045	-0.0033339	
0.00505	-0.00380055	
