Time - Plot 0	Amplitude - Plot 0	
0	-0.0157861	
5E-6	-0.0158131	
1E-5	-0.0157961	
1.5E-5	-0.0157033	
2E-5	-0.0156123	
2.5E-5	-0.0155745	
3E-5	-0.0155735	
3.5E-5	-0.0155493	
4E-5	-0.0154158	
4.5E-5	-0.0152167	
5E-5	-0.0150787	
5.5E-5	-0.0149875	
6E-5	-0.0148365	
6.5E-5	-0.0146056	
7E-5	-0.014333	
7.5E-5	-0.0140933	
8E-5	-0.0138866	
8.5E-5	-0.0136165	
9E-5	-0.0132696	
9.5E-5	-0.0128887	
0.0001	-0.0125033	
0.000105	-0.0121331	
0.00011	-0.0117906	
0.000115	-0.0114824	
0.00012	-0.0112114	
0.000125	-0.0109303	
0.00013	-0.0106083	
0.000135	-0.0102745	
0.00014	-0.00994875	
0.000145	-0.00959615	
0.00015	-0.00919501	
0.000155	-0.00878082	
0.00016	-0.0083301	
0.000165	-0.00782906	
0.00017	-0.00731855	
0.000175	-0.00682594	
0.00018	-0.00636844	
0.000185	-0.00595571	
0.00019	-0.0055445	
0.000195	-0.00505866	
0.0002	-0.0045466	
0.000205	-0.004089	
0.00021	-0.00364142	
0.000215	-0.00317408	
0.00022	-0.00271582	
0.000225	-0.00228522	
0.00023	-0.00184568	
0.000235	-0.00132597	
0.00024	-0.000730448	
0.000245	-6.55684E-5	
0.00025	0.000708664	
0.000255	0.00156591	
0.00026	0.00248489	
0.000265	0.00344863	
0.00027	0.00439631	
0.000275	0.00533611	
0.00028	0.0062738	
0.000285	0.00721329	
0.00029	0.00820459	
0.000295	0.0092307	
0.0003	0.0102312	
0.000305	0.0111676	
0.00031	0.0120173	
0.000315	0.0128173	
0.00032	0.0135942	
0.000325	0.0143666	
0.00033	0.0151946	
0.000335	0.0160677	
0.00034	0.0169767	
0.000345	0.0179615	
0.00035	0.0190447	
0.000355	0.0201891	
0.00036	0.0213198	
0.000365	0.0223879	
0.00037	0.0234118	
0.000375	0.0244531	
0.00038	0.0255043	
0.000385	0.0265122	
0.00039	0.0274915	
0.000395	0.0285482	
0.0004	0.0297009	
0.000405	0.0308626	
0.00041	0.0320226	
0.000415	0.0331743	
0.00042	0.0343136	
0.000425	0.0354858	
0.00043	0.0367194	
0.000435	0.0380302	
0.00044	0.0394249	
0.000445	0.0409041	
0.00045	0.0424166	
0.000455	0.0438795	
0.00046	0.0452405	
0.000465	0.0465174	
0.00047	0.0478212	
0.000475	0.0492236	
0.00048	0.0507197	
0.000485	0.052302	
0.00049	0.0539138	
0.000495	0.0554687	
0.0005	0.0569127	
0.000505	0.0582152	
0.00051	0.0594104	
0.000515	0.0605733	
0.00052	0.061755	
0.000525	0.0629883	
0.00053	0.0642448	
0.000535	0.0654572	
0.00054	0.0666307	
0.000545	0.0678181	
0.00055	0.0690061	
0.000555	0.0701857	
0.00056	0.0713992	
0.000565	0.0726251	
0.00057	0.0738488	
0.000575	0.0751082	
0.00058	0.076379	
0.000585	0.0776449	
0.00059	0.0789428	
0.000595	0.0802478	
0.0006	0.0814958	
0.000605	0.0826948	
0.00061	0.0838997	
0.000615	0.0850992	
0.00062	0.0862384	
0.000625	0.0873313	
0.00063	0.0884373	
0.000635	0.089547	
0.00064	0.0906543	
0.000645	0.0918026	
0.00065	0.0929712	
0.000655	0.0941455	
0.00066	0.0953155	
0.000665	0.0964273	
0.00067	0.0974957	
0.000675	0.0985326	
0.00068	0.099547	
0.000685	0.100594	
0.00069	0.10166	
0.000695	0.102736	
0.0007	0.103863	
0.000705	0.105017	
0.00071	0.106135	
0.000715	0.107224	
0.00072	0.108337	
0.000725	0.109461	
0.00073	0.110539	
0.000735	0.111535	
0.00074	0.112479	
0.000745	0.113437	
0.00075	0.114456	
0.000755	0.115513	
0.00076	0.116546	
0.000765	0.117562	
0.00077	0.118661	
0.000775	0.119905	
0.00078	0.121186	
0.000785	0.122383	
0.00079	0.123469	
0.000795	0.124429	
0.0008	0.125309	
0.000805	0.12619	
0.00081	0.127077	
0.000815	0.127926	
0.00082	0.12871	
0.000825	0.129461	
0.00083	0.13025	
0.000835	0.131075	
0.00084	0.131884	
0.000845	0.132645	
0.00085	0.132529	
0.000855	0.130177	
0.00086	0.125512	
0.000865	0.119352	
0.00087	0.112354	
0.000875	0.105041	
0.00088	0.0977703	
0.000885	0.0908238	
0.00089	0.0843723	
0.000895	0.0785047	
0.0009	0.0732996	
0.000905	0.06873	
0.00091	0.0647004	
0.000915	0.06117	
0.00092	0.0581357	
0.000925	0.0555244	
0.00093	0.0532681	
0.000935	0.0513525	
0.00094	0.0497522	
0.000945	0.0483878	
0.00095	0.0471486	
0.000955	0.0459554	
0.00096	0.0447539	
0.000965	0.0435562	
0.00097	0.0424177	
0.000975	0.041372	
0.00098	0.0403895	
0.000985	0.0394	
0.00099	0.0384052	
0.000995	0.0374539	
0.001	0.0365289	
0.001005	0.0355697	
0.00101	0.0345859	
0.001015	0.0336324	
0.00102	0.032744	
0.001025	0.0318929	
0.00103	0.0310117	
0.001035	0.0300572	
0.00104	0.0290521	
0.001045	0.0281085	
0.00105	0.0272502	
0.001055	0.0263937	
0.00106	0.0255313	
0.001065	0.0247058	
0.00107	0.0238962	
0.001075	0.0230878	
0.00108	0.0223184	
0.001085	0.0215636	
0.00109	0.0208066	
0.001095	0.0200364	
0.0011	0.0192464	
0.001105	0.0184807	
0.00111	0.0177197	
0.001115	0.0169027	
0.00112	0.0160399	
0.001125	0.0151878	
0.00113	0.0143354	
0.001135	0.0134756	
0.00114	0.0126517	
0.001145	0.0118903	
0.00115	0.0111586	
0.001155	0.0103861	
0.00116	0.00957567	
0.001165	0.00877854	
0.00117	0.0080279	
0.001175	0.0073434	
0.00118	0.00668737	
0.001185	0.00603359	
0.00119	0.00541222	
0.001195	0.00479408	
0.0012	0.00415976	
0.001205	0.00354478	
0.00121	0.00297163	
0.001215	0.00245318	
0.00122	0.00194778	
0.001225	0.00137982	
0.00123	0.000749931	
0.001235	0.000109008	
0.00124	-0.000508878	
0.001245	-0.00108235	
0.00125	-0.00164695	
0.001255	-0.00227406	
0.00126	-0.00296027	
0.001265	-0.00360545	
0.00127	-0.004098	
0.001275	-0.0044666	
0.00128	-0.00483113	
0.001285	-0.00522326	
0.00129	-0.00566258	
0.001295	-0.00615976	
0.0013	-0.00662406	
0.001305	-0.00699717	
0.00131	-0.00729251	
0.001315	-0.0075226	
0.00132	-0.0076988	
0.001325	-0.00787865	
0.00133	-0.00814748	
0.001335	-0.0085098	
0.00134	-0.00891663	
0.001345	-0.00928602	
0.00135	-0.00956572	
0.001355	-0.00982059	
0.00136	-0.0100946	
0.001365	-0.0103682	
0.00137	-0.0106286	
0.001375	-0.0108681	
0.00138	-0.0110823	
0.001385	-0.0113174	
0.00139	-0.0116501	
0.001395	-0.0120315	
0.0014	-0.0123794	
0.001405	-0.0126888	
0.00141	-0.0129106	
0.001415	-0.0130166	
0.00142	-0.0130413	
0.001425	-0.0130587	
0.00143	-0.0131655	
0.001435	-0.0133739	
0.00144	-0.0136392	
0.001445	-0.0139297	
0.00145	-0.0142229	
0.001455	-0.0145041	
0.00146	-0.0147165	
0.001465	-0.0147785	
0.00147	-0.0146907	
0.001475	-0.014556	
0.00148	-0.0144918	
0.001485	-0.014477	
0.00149	-0.0144005	
0.001495	-0.0142394	
0.0015	-0.0140776	
0.001505	-0.0139706	
0.00151	-0.0138097	
0.001515	-0.0135258	
0.00152	-0.0131742	
0.001525	-0.0127947	
0.00153	-0.0124621	
0.001535	-0.0122239	
0.00154	-0.0120115	
0.001545	-0.0117787	
0.00155	-0.011591	
0.001555	-0.0114419	
0.00156	-0.0112778	
0.001565	-0.0111115	
0.00157	-0.0109041	
0.001575	-0.010632	
0.00158	-0.0103299	
0.001585	-0.0100225	
0.00159	-0.00967846	
0.001595	-0.00927908	
0.0016	-0.00890963	
0.001605	-0.00857737	
0.00161	-0.00819029	
0.001615	-0.00773783	
0.00162	-0.0073112	
0.001625	-0.00696931	
0.00163	-0.00665193	
0.001635	-0.00627066	
0.00164	-0.00577021	
0.001645	-0.00516733	
0.00165	-0.00452542	
0.001655	-0.00388814	
0.00166	-0.00328406	
0.001665	-0.00273043	
0.00167	-0.00218872	
0.001675	-0.00158542	
0.00168	-0.000922509	
0.001685	-0.00025165	
0.00169	0.000392721	
0.001695	0.00103668	
0.0017	0.00169746	
0.001705	0.00233806	
0.00171	0.0029826	
0.001715	0.00369432	
0.00172	0.00451174	
0.001725	0.00540774	
0.00173	0.00631315	
0.001735	0.00718196	
0.00174	0.00803307	
0.001745	0.00892733	
0.00175	0.00985528	
0.001755	0.0107616	
0.00176	0.0116582	
0.001765	0.0126012	
0.00177	0.0135776	
0.001775	0.0144824	
0.00178	0.0152972	
0.001785	0.0160615	
0.00179	0.0167566	
0.001795	0.0175156	
0.0018	0.0184711	
0.001805	0.0195584	
0.00181	0.0206813	
0.001815	0.0218219	
0.00182	0.0230155	
0.001825	0.0242351	
0.00183	0.0254615	
0.001835	0.0267297	
0.00184	0.0280129	
0.001845	0.0292452	
0.00185	0.0304334	
0.001855	0.0316312	
0.00186	0.0328739	
0.001865	0.0341824	
0.00187	0.0355199	
0.001875	0.0368609	
0.00188	0.0382358	
0.001885	0.0396631	
0.00189	0.0411525	
0.001895	0.0426124	
0.0019	0.0439363	
0.001905	0.045203	
0.00191	0.0465146	
0.001915	0.0478889	
0.00192	0.0493345	
0.001925	0.0508064	
0.00193	0.0522736	
0.001935	0.0537632	
0.00194	0.0552448	
0.001945	0.056651	
0.00195	0.0579409	
0.001955	0.0591883	
0.00196	0.0604913	
0.001965	0.0618167	
0.00197	0.0631419	
0.001975	0.0644517	
0.00198	0.0656894	
0.001985	0.0668687	
0.00199	0.0680486	
0.001995	0.0692207	
0.002	0.0703798	
0.002005	0.0716181	
0.00201	0.0728975	
0.002015	0.074096	
0.00202	0.0753271	
0.002025	0.0767116	
0.00203	0.0781793	
0.002035	0.0796325	
0.00204	0.0810548	
0.002045	0.0824371	
0.00205	0.0837276	
0.002055	0.0849916	
0.00206	0.0863209	
0.002065	0.0877256	
0.00207	0.0892086	
0.002075	0.0907205	
0.00208	0.0921801	
0.002085	0.0935836	
0.00209	0.0949313	
0.002095	0.0961785	
0.0021	0.0973479	
0.002105	0.0984583	
0.00211	0.0994773	
0.002115	0.100388	
0.00212	0.101231	
0.002125	0.102086	
0.00213	0.102954	
0.002135	0.103839	
0.00214	0.104264	
0.002145	0.103179	
0.00215	0.100197	
0.002155	0.0958689	
0.00216	0.0909051	
0.002165	0.0857569	
0.00217	0.0806832	
0.002175	0.075946	
0.00218	0.0716073	
0.002185	0.0675939	
0.00219	0.0639848	
0.002195	0.0608605	
0.0022	0.0582037	
0.002205	0.0559808	
0.00221	0.054149	
0.002215	0.0526618	
0.00222	0.0514722	
0.002225	0.0504874	
0.00223	0.0495893	
0.002235	0.0486957	
0.00224	0.0477998	
0.002245	0.0469923	
0.00225	0.0463288	
0.002255	0.0457916	
0.00226	0.0453156	
0.002265	0.0448074	
0.00227	0.0442545	
0.002275	0.0437457	
0.00228	0.0433376	
0.002285	0.0429678	
0.00229	0.0425455	
0.002295	0.0420136	
0.0023	0.041387	
0.002305	0.0407277	
0.00231	0.0400303	
0.002315	0.0392459	
0.00232	0.0383935	
0.002325	0.0375367	
0.00233	0.03667	
0.002335	0.0357427	
0.00234	0.0347717	
0.002345	0.0338179	
0.00235	0.0329204	
0.002355	0.0320551	
0.00236	0.0312043	
0.002365	0.0304034	
0.00237	0.0296733	
0.002375	0.0290243	
0.00238	0.028412	
0.002385	0.0278053	
0.00239	0.0271835	
0.002395	0.0265335	
0.0024	0.0258958	
0.002405	0.0252487	
0.00241	0.0245786	
0.002415	0.0238774	
0.00242	0.0230939	
0.002425	0.0222455	
0.00243	0.0213946	
0.002435	0.0205821	
0.00244	0.019786	
0.002445	0.0189908	
0.00245	0.0182812	
0.002455	0.0176618	
0.00246	0.0170359	
0.002465	0.016388	
0.00247	0.015756	
0.002475	0.0151646	
0.00248	0.0145802	
0.002485	0.0139332	
0.00249	0.0132278	
0.002495	0.0125174	
0.0025	0.0117897	
0.002505	0.0110374	
0.00251	0.0103046	
0.002515	0.00957174	
0.00252	0.00882594	
0.002525	0.00815443	
0.00253	0.0076112	
0.002535	0.00713071	
0.00254	0.00666678	
0.002545	0.00618817	
0.00255	0.00562746	
0.002555	0.00499159	
0.00256	0.00433624	
0.002565	0.00369905	
0.00257	0.00310396	
0.002575	0.00256478	
0.00258	0.00204044	
0.002585	0.0014556	
0.00259	0.000811004	
0.002595	0.000157494	
0.0026	-0.000470985	
0.002605	-0.00110077	
0.00261	-0.00174916	
0.002615	-0.00237915	
0.00262	-0.00301476	
0.002625	-0.00367153	
0.00263	-0.00431119	
0.002635	-0.00490933	
0.00264	-0.00545178	
0.002645	-0.00597941	
0.00265	-0.00656738	
0.002655	-0.00716731	
0.00266	-0.0076517	
0.002665	-0.00798945	
0.00267	-0.00821455	
0.002675	-0.00840225	
0.00268	-0.00865149	
0.002685	-0.00897706	
0.00269	-0.00933755	
0.002695	-0.00979909	
0.0027	-0.0104005	
0.002705	-0.0109706	
0.00271	-0.011398	
0.002715	-0.0117112	
0.00272	-0.0119342	
0.002725	-0.0121347	
0.00273	-0.0123585	
0.002735	-0.012587	
0.00274	-0.0128553	
0.002745	-0.0131373	
0.00275	-0.0133673	
0.002755	-0.0135998	
0.00276	-0.0138704	
0.002765	-0.0141533	
0.00277	-0.0144786	
0.002775	-0.0148638	
0.00278	-0.0152229	
0.002785	-0.0155003	
0.00279	-0.0157106	
0.002795	-0.0158667	
0.0028	-0.0159798	
0.002805	-0.0160591	
0.00281	-0.0161599	
0.002815	-0.0163177	
0.00282	-0.0165056	
0.002825	-0.0167044	
0.00283	-0.0168536	
0.002835	-0.0169153	
0.00284	-0.0169641	
0.002845	-0.017097	
0.00285	-0.0173268	
0.002855	-0.0175619	
0.00286	-0.0176944	
0.002865	-0.0177529	
0.00287	-0.017855	
0.002875	-0.017981	
0.00288	-0.0179267	
0.002885	-0.0176134	
0.00289	-0.0172392	
0.002895	-0.0169377	
0.0029	-0.0166984	
0.002905	-0.0165113	
0.00291	-0.0163676	
0.002915	-0.0163068	
0.00292	-0.0163511	
0.002925	-0.016415	
0.00293	-0.0164413	
0.002935	-0.0164416	
0.00294	-0.0164247	
0.002945	-0.0163498	
0.00295	-0.0161925	
0.002955	-0.016036	
0.00296	-0.0159349	
0.002965	-0.0158751	
0.00297	-0.0158454	
0.002975	-0.015837	
0.00298	-0.0158429	
0.002985	-0.0157154	
0.00299	-0.0153634	
0.002995	-0.0150227	
0.003	-0.0148005	
0.003005	-0.0145719	
0.00301	-0.0143024	
0.003015	-0.0140187	
0.00302	-0.0137389	
0.003025	-0.0134751	
0.00303	-0.0132343	
0.003035	-0.0129724	
0.00304	-0.012614	
0.003045	-0.0121613	
0.00305	-0.011668	
0.003055	-0.0111711	
0.00306	-0.0106954	
0.003065	-0.0102561	
0.00307	-0.00986173	
0.003075	-0.00951553	
0.00308	-0.00921748	
0.003085	-0.00891774	
0.00309	-0.008536	
0.003095	-0.00807071	
0.0031	-0.00747727	
0.003105	-0.0066848	
0.00311	-0.00584611	
0.003115	-0.00511169	
0.00312	-0.00443322	
0.003125	-0.00377619	
0.00313	-0.00311685	
0.003135	-0.00239209	
0.00314	-0.00161094	
0.003145	-0.000829559	
0.00315	-8.49834E-5	
0.003155	0.000600108	
0.00316	0.00126111	
0.003165	0.00197004	
0.00317	0.00272457	
0.003175	0.00347348	
0.00318	0.00418327	
0.003185	0.00483369	
0.00319	0.00546173	
0.003195	0.00614039	
0.0032	0.00686786	
0.003205	0.00764063	
0.00321	0.00845427	
0.003215	0.00925636	
0.00322	0.0100604	
0.003225	0.0109229	
0.00323	0.0118305	
0.003235	0.0127251	
0.00324	0.0136162	
0.003245	0.0145579	
0.00325	0.0155837	
0.003255	0.0166162	
0.00326	0.0175569	
0.003265	0.01844	
0.00327	0.0193385	
0.003275	0.0202997	
0.00328	0.0213043	
0.003285	0.0223376	
0.00329	0.023436	
0.003295	0.0246204	
0.0033	0.025853	
0.003305	0.0270592	
0.00331	0.0282383	
0.003315	0.029439	
0.00332	0.0307397	
0.003325	0.0321398	
0.00333	0.0335394	
0.003335	0.0349198	
0.00334	0.03627	
0.003345	0.0375838	
0.00335	0.038859	
0.003355	0.0400485	
0.00336	0.0412203	
0.003365	0.0424676	
0.00337	0.0438008	
0.003375	0.0452225	
0.00338	0.046683	
0.003385	0.0481	
0.00339	0.0494687	
0.003395	0.050836	
0.0034	0.0521853	
0.003405	0.0535063	
0.00341	0.0548413	
0.003415	0.0562174	
0.00342	0.0576507	
0.003425	0.0591014	
0.00343	0.0605425	
0.003435	0.0620041	
0.00344	0.0635053	
0.003445	0.065009	
0.00345	0.0664434	
0.003455	0.0678116	
0.00346	0.0691191	
0.003465	0.0703723	
0.00347	0.0716254	
0.003475	0.0728667	
0.00348	0.0740416	
0.003485	0.0751646	
0.00349	0.0762954	
0.003495	0.0774728	
0.0035	0.0787205	
0.003505	0.0800029	
0.00351	0.0812952	
0.003515	0.0826279	
0.00352	0.0840193	
0.003525	0.0854311	
0.00353	0.0867896	
0.003535	0.0880962	
0.00354	0.0893544	
0.003545	0.0905686	
0.00355	0.0917915	
0.003555	0.0930099	
0.00356	0.0942151	
0.003565	0.0954497	
0.00357	0.0966929	
0.003575	0.0978829	
0.00358	0.0989816	
0.003585	0.100016	
0.00359	0.101053	
0.003595	0.102091	
0.0036	0.103129	
0.003605	0.104211	
0.00361	0.10532	
0.003615	0.106394	
0.00362	0.107441	
0.003625	0.108469	
0.00363	0.109483	
0.003635	0.110582	
0.00364	0.111781	
0.003645	0.112989	
0.00365	0.114145	
0.003655	0.115213	
0.00366	0.116172	
0.003665	0.117014	
0.00367	0.117786	
0.003675	0.118619	
0.00368	0.119595	
0.003685	0.120666	
0.00369	0.12175	
0.003695	0.122838	
0.0037	0.123925	
0.003705	0.12496	
0.00371	0.125959	
0.003715	0.126935	
0.00372	0.127849	
0.003725	0.12868	
0.00373	0.129464	
0.003735	0.130274	
0.00374	0.131112	
0.003745	0.131975	
0.00375	0.13291	
0.003755	0.133894	
0.00376	0.134866	
0.003765	0.135782	
0.00377	0.136572	
0.003775	0.137193	
0.00378	0.136865	
0.003785	0.134311	
0.00379	0.129507	
0.003795	0.123209	
0.0038	0.116033	
0.003805	0.108524	
0.00381	0.101101	
0.003815	0.0940398	
0.00382	0.0874555	
0.003825	0.0814495	
0.00383	0.0761565	
0.003835	0.0716315	
0.00384	0.0677318	
0.003845	0.0642863	
0.00385	0.0613031	
0.003855	0.0588134	
0.00386	0.0566718	
0.003865	0.0547185	
0.00387	0.052934	
0.003875	0.0513453	
0.00388	0.0499134	
0.003885	0.0485574	
0.00389	0.0472205	
0.003895	0.045912	
0.0039	0.0446841	
0.003905	0.0435198	
0.00391	0.0423575	
0.003915	0.0411564	
0.00392	0.0399865	
0.003925	0.0389401	
0.00393	0.037977	
0.003935	0.0370669	
0.00394	0.0361873	
0.003945	0.0352743	
0.00395	0.0343349	
0.003955	0.0334225	
0.00396	0.0325236	
0.003965	0.031581	
0.00397	0.0306067	
0.003975	0.0296574	
0.00398	0.0287222	
0.003985	0.0277453	
0.00399	0.0267396	
0.003995	0.0257624	
0.004	0.0248504	
0.004005	0.0239768	
0.00401	0.0230274	
0.004015	0.0219777	
0.00402	0.0209592	
0.004025	0.0200093	
0.00403	0.0191021	
0.004035	0.018266	
0.00404	0.0175162	
0.004045	0.0168589	
0.00405	0.0161986	
0.004055	0.0154723	
0.00406	0.0147371	
0.004065	0.0140306	
0.00407	0.0133765	
0.004075	0.0127404	
0.00408	0.0120987	
0.004085	0.0114836	
0.00409	0.0109152	
0.004095	0.0103569	
0.0041	0.00973662	
0.004105	0.00905725	
0.00411	0.00837108	
0.004115	0.00771286	
0.00412	0.00710421	
0.004125	0.00655703	
0.00413	0.00602872	
0.004135	0.00544278	
0.00414	0.00479901	
0.004145	0.00410003	
0.00415	0.00335017	
0.004155	0.00260222	
0.00416	0.00184339	
0.004165	0.00106572	
0.00417	0.00031243	
0.004175	-0.000389168	
0.00418	-0.0010235	
0.004185	-0.00158347	
0.00419	-0.00211547	
0.004195	-0.00265139	
0.0042	-0.00311702	
0.004205	-0.00351428	
0.00421	-0.00394274	
0.004215	-0.00441904	
0.00422	-0.00485683	
0.004225	-0.00520097	
0.00423	-0.00551464	
0.004235	-0.0058409	
0.00424	-0.00616005	
0.004245	-0.0064594	
0.00425	-0.00673154	
0.004255	-0.00702041	
0.00426	-0.00735418	
0.004265	-0.00765423	
0.00427	-0.00787032	
0.004275	-0.00802083	
0.00428	-0.00816853	
0.004285	-0.00840244	
0.00429	-0.00868215	
0.004295	-0.00888374	
0.0043	-0.0090243	
0.004305	-0.0091655	
0.00431	-0.00925291	
0.004315	-0.00930072	
0.00432	-0.00941523	
0.004325	-0.00961584	
0.00433	-0.00986373	
0.004335	-0.0101311	
0.00434	-0.0103986	
0.004345	-0.0107011	
0.00435	-0.0110124	
0.004355	-0.0112196	
0.00436	-0.0113485	
0.004365	-0.0114672	
0.00437	-0.0115735	
0.004375	-0.0116666	
0.00438	-0.0117466	
0.004385	-0.0118142	
0.00439	-0.0118704	
0.004395	-0.0119164	
0.0044	-0.0119536	
0.004405	-0.0119356	
0.00441	-0.011787	
0.004415	-0.0115119	
0.00442	-0.0111662	
0.004425	-0.0107905	
0.00443	-0.0104127	
0.004435	-0.0100513	
0.00444	-0.00971797	
0.004445	-0.00941881	
0.00445	-0.00915636	
0.004455	-0.00893052	
0.00446	-0.00873951	
0.004465	-0.00853296	
0.00447	-0.00832592	
0.004475	-0.00822344	
0.00448	-0.00819474	
0.004485	-0.00812097	
0.00449	-0.0079259	
0.004495	-0.00766009	
0.0045	-0.00745527	
0.004505	-0.00730035	
0.00451	-0.00704306	
0.004515	-0.00663537	
0.00452	-0.00614779	
0.004525	-0.00558307	
0.00453	-0.00499419	
0.004535	-0.00446478	
0.00454	-0.00395208	
0.004545	-0.0034271	
0.00455	-0.00291887	
0.004555	-0.00244572	
0.00456	-0.00201807	
0.004565	-0.00164065	
0.00457	-0.00126667	
0.004575	-0.000817572	
0.00458	-0.000292651	
0.004585	0.000257435	
0.00459	0.000798096	
0.004595	0.00135451	
0.0046	0.00199005	
0.004605	0.00269526	
0.00461	0.00346056	
0.004615	0.00432438	
0.00462	0.00525982	
0.004625	0.00619824	
0.00463	0.00704671	
0.004635	0.00774821	
0.00464	0.00841468	
0.004645	0.00916916	
0.00465	0.0099935	
0.004655	0.0108725	
0.00466	0.0118409	
0.004665	0.0128701	
0.00467	0.0138907	
0.004675	0.0148573	
0.00468	0.0157902	
0.004685	0.0167517	
0.00469	0.0177818	
0.004695	0.0189034	
0.0047	0.0200798	
0.004705	0.0212842	
0.00471	0.0224978	
0.004715	0.0236123	
0.00472	0.0246089	
0.004725	0.0256232	
0.00473	0.0266962	
0.004735	0.0277573	
0.00474	0.0288077	
0.004745	0.0298491	
0.00475	0.0308827	
0.004755	0.032005	
0.00476	0.0332276	
0.004765	0.0344587	
0.00477	0.0356846	
0.004775	0.0369442	
0.00478	0.0382614	
0.004785	0.039602	
0.00479	0.040942	
0.004795	0.0422659	
0.0048	0.0435165	
0.004805	0.0447071	
0.00481	0.0458969	
0.004815	0.0471251	
0.00482	0.048368	
0.004825	0.0496092	
0.00483	0.0508859	
0.004835	0.0521729	
0.00484	0.0534535	
0.004845	0.0547644	
0.00485	0.0561283	
0.004855	0.0575577	
0.00486	0.0590102	
0.004865	0.0604568	
0.00487	0.0619262	
0.004875	0.0633886	
0.00488	0.0647772	
0.004885	0.066099	
0.00489	0.0674094	
0.004895	0.0686978	
0.0049	0.0699582	
0.004905	0.0712357	
0.00491	0.0725591	
0.004915	0.0739453	
0.00492	0.0753547	
0.004925	0.0767129	
0.00493	0.0780206	
0.004935	0.0793282	
0.00494	0.0806689	
0.004945	0.0820632	
0.00495	0.0834744	
0.004955	0.0848775	
0.00496	0.0863039	
0.004965	0.0877259	
0.00497	0.0891251	
0.004975	0.0904908	
0.00498	0.0917697	
0.004985	0.0929784	
0.00499	0.0941313	
0.004995	0.0952403	
0.005	0.0963154	
0.005005	0.0973175	
0.00501	0.0983189	
0.005015	0.0994153	
0.00502	0.100617	
0.005025	0.101785	
0.00503	0.102732	
0.005035	0.103583	
