Time - Plot 0	Amplitude - Plot 0	
0	0.0384108	
5E-6	0.0379109	
1E-5	0.0373569	
1.5E-5	0.0367458	
2E-5	0.0361261	
2.5E-5	0.0354824	
3E-5	0.0347582	
3.5E-5	0.0339678	
4E-5	0.033171	
4.5E-5	0.0324077	
5E-5	0.0316551	
5.5E-5	0.0308501	
6E-5	0.030001	
6.5E-5	0.029163	
7E-5	0.028372	
7.5E-5	0.0276493	
8E-5	0.027006	
8.5E-5	0.0264453	
9E-5	0.0259657	
9.5E-5	0.0255147	
0.0001	0.0250087	
0.000105	0.024443	
0.00011	0.0238646	
0.000115	0.0233052	
0.00012	0.0227848	
0.000125	0.0222672	
0.00013	0.0216808	
0.000135	0.0210293	
0.00014	0.0203656	
0.000145	0.0197254	
0.00015	0.0191309	
0.000155	0.0185946	
0.00016	0.0181221	
0.000165	0.0177139	
0.00017	0.0173201	
0.000175	0.0168591	
0.00018	0.0163282	
0.000185	0.0157763	
0.00019	0.0152367	
0.000195	0.0147306	
0.0002	0.0142707	
0.000205	0.0138153	
0.00021	0.013337	
0.000215	0.0128662	
0.00022	0.012375	
0.000225	0.0117986	
0.00023	0.0111457	
0.000235	0.0105208	
0.00024	0.00999148	
0.000245	0.00950264	
0.00025	0.00901608	
0.000255	0.00855404	
0.00026	0.00808249	
0.000265	0.00757943	
0.00027	0.0070794	
0.000275	0.00655747	
0.00028	0.00599826	
0.000285	0.00544092	
0.00029	0.00486363	
0.000295	0.00425296	
0.0003	0.00364916	
0.000305	0.00307845	
0.00031	0.00255656	
0.000315	0.00209153	
0.00032	0.00168599	
0.000325	0.00133886	
0.00033	0.000999123	
0.000335	0.000632791	
0.00034	0.000266253	
0.000345	-0.000130622	
0.00035	-0.000576261	
0.000355	-0.00108051	
0.00036	-0.00159956	
0.000365	-0.00200874	
0.00037	-0.00232612	
0.000375	-0.00261551	
0.00038	-0.00292029	
0.000385	-0.00326833	
0.00039	-0.0035809	
0.000395	-0.0038553	
0.0004	-0.00413909	
0.000405	-0.00441565	
0.00041	-0.00467436	
0.000415	-0.00490906	
0.00042	-0.00511684	
0.000425	-0.00529703	
0.00043	-0.00549805	
0.000435	-0.00570329	
0.00044	-0.00585408	
0.000445	-0.00600936	
0.00045	-0.0062078	
0.000455	-0.00642531	
0.00046	-0.0066451	
0.000465	-0.006856	
0.00047	-0.00700354	
0.000475	-0.00705477	
0.00048	-0.00708763	
0.000485	-0.00715435	
0.00049	-0.00724023	
0.000495	-0.00738224	
0.0005	-0.00760206	
0.000505	-0.00781525	
0.00051	-0.00796646	
0.000515	-0.00802211	
0.00052	-0.00796459	
0.000525	-0.0078827	
0.00053	-0.00783616	
0.000535	-0.00781512	
0.00054	-0.00785944	
0.000545	-0.00799227	
0.00055	-0.00812966	
0.000555	-0.00821601	
0.00056	-0.00826464	
0.000565	-0.00828608	
0.00057	-0.00824105	
0.000575	-0.00805926	
0.00058	-0.00779589	
0.000585	-0.00758626	
0.00059	-0.00742197	
0.000595	-0.00724782	
0.0006	-0.00712294	
0.000605	-0.00703645	
0.00061	-0.00688429	
0.000615	-0.0066485	
0.00062	-0.00632117	
0.000625	-0.00590145	
0.00063	-0.00548819	
0.000635	-0.00509874	
0.00064	-0.00469587	
0.000645	-0.00435074	
0.00065	-0.00406001	
0.000655	-0.00372382	
0.00066	-0.00337357	
0.000665	-0.00312567	
0.00067	-0.002957	
0.000675	-0.00280099	
0.00068	-0.00266072	
0.000685	-0.00248992	
0.00069	-0.00225954	
0.000695	-0.00195323	
0.0007	-0.00156382	
0.000705	-0.00118556	
0.00071	-0.000832548	
0.000715	-0.000417809	
0.00072	6.55499E-5	
0.000725	0.00057129	
0.00073	0.00106787	
0.000735	0.00153492	
0.00074	0.00196041	
0.000745	0.0023859	
0.00075	0.00288635	
0.000755	0.00346008	
0.00076	0.00410253	
0.000765	0.00485498	
0.00077	0.00569189	
0.000775	0.00654492	
0.00078	0.00736822	
0.000785	0.00813298	
0.00079	0.00882298	
0.000795	0.00952611	
0.0008	0.0103948	
0.000805	0.0113791	
0.00081	0.0123455	
0.000815	0.0133019	
0.00082	0.0143017	
0.000825	0.0153302	
0.00083	0.0162815	
0.000835	0.0171369	
0.00084	0.0179836	
0.000845	0.0188798	
0.00085	0.0198611	
0.000855	0.0209473	
0.00086	0.0220987	
0.000865	0.0232388	
0.00087	0.0244125	
0.000875	0.0256479	
0.00088	0.026818	
0.000885	0.0278898	
0.00089	0.0289411	
0.000895	0.0299766	
0.0009	0.0310004	
0.000905	0.0320631	
0.00091	0.0331486	
0.000915	0.0342455	
0.00092	0.035393	
0.000925	0.0365671	
0.00093	0.0377033	
0.000935	0.0388082	
0.00094	0.0399354	
0.000945	0.041119	
0.00095	0.0423788	
0.000955	0.0437244	
0.00096	0.0451581	
0.000965	0.0466294	
0.00097	0.048056	
0.000975	0.0494333	
0.00098	0.0508078	
0.000985	0.0521632	
0.00099	0.0534893	
0.000995	0.0548284	
0.001	0.0561604	
0.001005	0.0574246	
0.00101	0.058632	
0.001015	0.0598872	
0.00102	0.0612574	
0.001025	0.062686	
0.00103	0.0640856	
0.001035	0.0654474	
0.00104	0.0668149	
0.001045	0.0681691	
0.00105	0.0694504	
0.001055	0.0706706	
0.00106	0.0718879	
0.001065	0.0731407	
0.00107	0.0744528	
0.001075	0.075837	
0.00108	0.0772983	
0.001085	0.0787889	
0.00109	0.0802283	
0.001095	0.0815658	
0.0011	0.0828205	
0.001105	0.0840563	
0.00111	0.0852687	
0.001115	0.0864558	
0.00112	0.0876653	
0.001125	0.0888797	
0.00113	0.0900401	
0.001135	0.0911574	
0.00114	0.0923361	
0.001145	0.0935946	
0.00115	0.0948461	
0.001155	0.0960815	
0.00116	0.0972953	
0.001165	0.0984849	
0.00117	0.0996975	
0.001175	0.100915	
0.00118	0.102032	
0.001185	0.102933	
0.00119	0.103602	
0.001195	0.103517	
0.0012	0.101749	
0.001205	0.0982432	
0.00121	0.0936615	
0.001215	0.0885874	
0.00122	0.0833811	
0.001225	0.0782864	
0.00123	0.0735061	
0.001235	0.0691593	
0.00124	0.0653039	
0.001245	0.0619548	
0.00125	0.0590504	
0.001255	0.0564816	
0.00126	0.0542555	
0.001265	0.0524082	
0.00127	0.0508505	
0.001275	0.0494624	
0.00128	0.0481566	
0.001285	0.0469194	
0.00129	0.0458334	
0.001295	0.044946	
0.0013	0.0441841	
0.001305	0.0434457	
0.00131	0.0426628	
0.001315	0.0418401	
0.00132	0.0410299	
0.001325	0.0402664	
0.00133	0.0395698	
0.001335	0.0389501	
0.00134	0.0383631	
0.001345	0.0377302	
0.00135	0.0370495	
0.001355	0.0363694	
0.00136	0.035722	
0.001365	0.0350791	
0.00137	0.0343746	
0.001375	0.0336153	
0.00138	0.0328557	
0.001385	0.0321318	
0.00139	0.0314182	
0.001395	0.0306501	
0.0014	0.0298348	
0.001405	0.029027	
0.00141	0.0282148	
0.001415	0.0273905	
0.00142	0.0266449	
0.001425	0.0259863	
0.00143	0.0253212	
0.001435	0.0246358	
0.00144	0.0239693	
0.001445	0.0232994	
0.00145	0.0225638	
0.001455	0.0217721	
0.00146	0.0209809	
0.001465	0.0202274	
0.00147	0.0195345	
0.001475	0.0188667	
0.00148	0.018152	
0.001485	0.0173927	
0.00149	0.0166398	
0.001495	0.0159268	
0.0015	0.0152738	
0.001505	0.0146437	
0.00151	0.014011	
0.001515	0.0134065	
0.00152	0.0128017	
0.001525	0.0121777	
0.00153	0.0115705	
0.001535	0.0109557	
0.00154	0.0102698	
0.001545	0.00952201	
0.00155	0.00876871	
0.001555	0.00804742	
0.00156	0.00738137	
0.001565	0.00678323	
0.00157	0.00621062	
0.001575	0.00558687	
0.00158	0.00491135	
0.001585	0.00423366	
0.00159	0.00358659	
0.001595	0.00294277	
0.0016	0.00223648	
0.001605	0.00147487	
0.00161	0.000712813	
0.001615	3.40327E-5	
0.00162	-0.000510197	
0.001625	-0.00103504	
0.00163	-0.00166489	
0.001635	-0.00238171	
0.00164	-0.00307444	
0.001645	-0.00367098	
0.00165	-0.00422343	
0.001655	-0.00476821	
0.00166	-0.00528216	
0.001665	-0.00575148	
0.00167	-0.00621671	
0.001675	-0.00675231	
0.00168	-0.00735651	
0.001685	-0.00797736	
0.00169	-0.00857983	
0.001695	-0.00914168	
0.0017	-0.00965018	
0.001705	-0.010147	
0.00171	-0.0107076	
0.001715	-0.0113314	
0.00172	-0.0119673	
0.001725	-0.0125812	
0.00173	-0.0131514	
0.001735	-0.0136659	
0.00174	-0.0141669	
0.001745	-0.0146828	
0.00175	-0.0151366	
0.001755	-0.0154804	
0.00176	-0.0157355	
0.001765	-0.01592	
0.00177	-0.0160492	
0.001775	-0.0161359	
0.00178	-0.0161905	
0.001785	-0.0162212	
0.00179	-0.0162348	
0.001795	-0.016284	
0.0018	-0.0164019	
0.001805	-0.0165595	
0.00181	-0.0167834	
0.001815	-0.0170878	
0.00182	-0.0174311	
0.001825	-0.0177837	
0.00183	-0.0181257	
0.001835	-0.0184447	
0.00184	-0.0187333	
0.001845	-0.0189882	
0.00185	-0.0192089	
0.001855	-0.0193966	
0.00186	-0.0195537	
0.001865	-0.0196831	
0.00187	-0.0197882	
0.001875	-0.0198722	
0.00188	-0.0199384	
0.001885	-0.0199897	
0.00189	-0.0200288	
0.001895	-0.020058	
0.0019	-0.0200792	
0.001905	-0.0200942	
0.00191	-0.0201044	
0.001915	-0.020111	
0.00192	-0.0201623	
0.001925	-0.0202883	
0.00193	-0.02041	
0.001935	-0.0204757	
0.00194	-0.0205012	
0.001945	-0.0204991	
0.00195	-0.0204788	
0.001955	-0.0204476	
0.00196	-0.0204106	
0.001965	-0.0203715	
0.00197	-0.0202854	
0.001975	-0.0201248	
0.00198	-0.0199702	
0.001985	-0.0198269	
0.00199	-0.0196028	
0.001995	-0.0193359	
0.002	-0.0191011	
0.002005	-0.0188984	
0.00201	-0.0187266	
0.002015	-0.0185357	
0.00202	-0.0183412	
0.002025	-0.0182011	
0.00203	-0.018056	
0.002035	-0.0178668	
0.00204	-0.0176577	
0.002045	-0.0174451	
0.00205	-0.0172404	
0.002055	-0.0170506	
0.00206	-0.016832	
0.002065	-0.0165098	
0.00207	-0.0160868	
0.002075	-0.015665	
0.00208	-0.0153115	
0.002085	-0.0149722	
0.00209	-0.0146107	
0.002095	-0.0142518	
0.0021	-0.0139115	
0.002105	-0.0135995	
0.00211	-0.0132735	
0.002115	-0.0128585	
0.00212	-0.0123571	
0.002125	-0.0118222	
0.00213	-0.0112907	
0.002135	-0.0107865	
0.00214	-0.0102767	
0.002145	-0.00969209	
0.00215	-0.00899086	
0.002155	-0.00815079	
0.00216	-0.00725892	
0.002165	-0.00642261	
0.00217	-0.00561496	
0.002175	-0.00481687	
0.00218	-0.00406282	
0.002185	-0.00332595	
0.00219	-0.00254018	
0.002195	-0.0017118	
0.0022	-0.000846978	
0.002205	4.85108E-5	
0.00221	0.000921863	
0.002215	0.00178685	
0.00222	0.00265294	
0.002225	0.00352633	
0.00223	0.0044583	
0.002235	0.00538481	
0.00224	0.00621636	
0.002245	0.00704104	
0.00225	0.00796479	
0.002255	0.00895772	
0.00226	0.00994928	
0.002265	0.010893	
0.00227	0.0118082	
0.002275	0.0128038	
0.00228	0.0139004	
0.002285	0.0149643	
0.00229	0.0159562	
0.002295	0.0169963	
0.0023	0.0181142	
0.002305	0.0192304	
0.00231	0.0203403	
0.002315	0.021441	
0.00232	0.0225312	
0.002325	0.0236579	
0.00233	0.0248505	
0.002335	0.0261252	
0.00234	0.0274413	
0.002345	0.0287224	
0.00235	0.0299674	
0.002355	0.0312248	
0.00236	0.0325259	
0.002365	0.0338894	
0.00237	0.0352771	
0.002375	0.0366151	
0.00238	0.037857	
0.002385	0.0390244	
0.00239	0.0401826	
0.002395	0.0413749	
0.0024	0.0426283	
0.002405	0.0439105	
0.00241	0.0451983	
0.002415	0.0465241	
0.00242	0.0479073	
0.002425	0.049358	
0.00243	0.0508321	
0.002435	0.0522519	
0.00244	0.0536163	
0.002445	0.0549747	
0.00245	0.0563125	
0.002455	0.0576209	
0.00246	0.0589906	
0.002465	0.0604786	
0.00247	0.0620218	
0.002475	0.0635283	
0.00248	0.0649395	
0.002485	0.0662685	
0.00249	0.0675756	
0.002495	0.0689014	
0.0025	0.0702721	
0.002505	0.0717024	
0.00251	0.0731996	
0.002515	0.0747176	
0.00252	0.076225	
0.002525	0.0777492	
0.00253	0.0792599	
0.002535	0.0806903	
0.00254	0.0820476	
0.002545	0.0833876	
0.00255	0.0847478	
0.002555	0.0861522	
0.00256	0.0875667	
0.002565	0.0889687	
0.00257	0.090391	
0.002575	0.091807	
0.00258	0.0931995	
0.002585	0.0946057	
0.00259	0.0960018	
0.002595	0.0973729	
0.0026	0.0987102	
0.002605	0.0999619	
0.00261	0.101193	
0.002615	0.102495	
0.00262	0.10383	
0.002625	0.105123	
0.00263	0.106375	
0.002635	0.107636	
0.00264	0.10889	
0.002645	0.110081	
0.00265	0.111221	
0.002655	0.111704	
0.00266	0.110399	
0.002665	0.107169	
0.00267	0.10268	
0.002675	0.0975258	
0.00268	0.0921766	
0.002685	0.0869519	
0.00269	0.0820564	
0.002695	0.0775619	
0.0027	0.0734969	
0.002705	0.0699074	
0.00271	0.0668011	
0.002715	0.0641603	
0.00272	0.0619039	
0.002725	0.0599601	
0.00273	0.0583143	
0.002735	0.0569904	
0.00274	0.0559889	
0.002745	0.0551998	
0.00275	0.0545405	
0.002755	0.0539505	
0.00276	0.053339	
0.002765	0.0526947	
0.00277	0.0520592	
0.002775	0.0514596	
0.00278	0.0508645	
0.002785	0.050253	
0.00279	0.0496596	
0.002795	0.0491062	
0.0028	0.0486053	
0.002805	0.0481152	
0.00281	0.0476079	
0.002815	0.0471132	
0.00282	0.0466027	
0.002825	0.0460584	
0.00283	0.0455176	
0.002835	0.0449095	
0.00284	0.0441433	
0.002845	0.043309	
0.00285	0.0425169	
0.002855	0.0417424	
0.00286	0.0409687	
0.002865	0.0402322	
0.00287	0.0395549	
0.002875	0.0389013	
0.00288	0.038199	
0.002885	0.0374504	
0.00289	0.0367066	
0.002895	0.0360012	
0.0029	0.0353544	
0.002905	0.0347294	
0.00291	0.0340532	
0.002915	0.0333277	
0.00292	0.032604	
0.002925	0.0318682	
0.00293	0.0311117	
0.002935	0.0304249	
0.00294	0.0298164	
0.002945	0.0291458	
0.00295	0.0283709	
0.002955	0.0276115	
0.00296	0.0268981	
0.002965	0.0262012	
0.00297	0.0255483	
0.002975	0.0249077	
0.00298	0.0242579	
0.002985	0.0235853	
0.00299	0.022882	
0.002995	0.0221916	
0.003	0.0214949	
0.003005	0.0207794	
0.00301	0.0200854	
0.003015	0.0194384	
0.00302	0.0188055	
0.003025	0.0181166	
0.00303	0.0174235	
0.003035	0.016808	
0.00304	0.0162251	
0.003045	0.0156437	
0.00305	0.015091	
0.003055	0.0145832	
0.00306	0.014129	
0.003065	0.0136842	
0.00307	0.0131715	
0.003075	0.0125907	
0.00308	0.0120401	
0.003085	0.011583	
0.00309	0.0111615	
0.003095	0.010736	
0.0031	0.010328	
0.003105	0.0099507	
0.00311	0.00961159	
0.003115	0.00926614	
0.00312	0.00883779	
0.003125	0.00832749	
0.00313	0.00773976	
0.003135	0.00708124	
0.00314	0.00645473	
0.003145	0.0059265	
0.00315	0.00544051	
0.003155	0.00491028	
0.00316	0.00432844	
0.003165	0.00374008	
0.00317	0.00317525	
0.003175	0.00260511	
0.00318	0.00201092	
0.003185	0.00147649	
0.00319	0.00105428	
0.003195	0.000726036	
0.0032	0.00047527	
0.003205	0.00028745	
0.00321	0.000102481	
0.003215	-0.00016693	
0.00322	-0.00052681	
0.003225	-0.000881784	
0.00323	-0.0011692	
0.003235	-0.00144601	
0.00324	-0.00170273	
0.003245	-0.00193408	
0.00325	-0.00223281	
0.003255	-0.00256185	
0.00326	-0.0028953	
0.003265	-0.00326344	
0.00327	-0.00358949	
0.003275	-0.00387237	
0.00328	-0.00420848	
0.003285	-0.00456378	
0.00329	-0.00486741	
0.003295	-0.0051226	
0.0033	-0.00533378	
0.003305	-0.00555349	
0.00331	-0.00581598	
0.003315	-0.00604671	
0.00332	-0.00619806	
0.003325	-0.00633744	
0.00333	-0.00650988	
0.003335	-0.00669596	
0.00334	-0.00688222	
0.003345	-0.00701227	
0.00335	-0.00700403	
0.003355	-0.006905	
0.00336	-0.00684586	
0.003365	-0.00686336	
0.00337	-0.00693056	
0.003375	-0.00702735	
0.00338	-0.00709154	
0.003385	-0.00708366	
0.00339	-0.00702864	
0.003395	-0.00694513	
0.0034	-0.00689433	
0.003405	-0.0068675	
0.00341	-0.00676267	
0.003415	-0.00661136	
0.00342	-0.00653165	
0.003425	-0.00655044	
0.00343	-0.00663329	
0.003435	-0.00670693	
0.00344	-0.00672347	
0.003445	-0.00670159	
0.00345	-0.0066554	
0.003455	-0.00659537	
0.00346	-0.00648153	
0.003465	-0.00633758	
0.00347	-0.00622813	
0.003475	-0.00609906	
0.00348	-0.00591563	
0.003485	-0.00570504	
0.00349	-0.00543895	
0.003495	-0.00510133	
0.0035	-0.00478005	
0.003505	-0.00453227	
0.00351	-0.00434467	
0.003515	-0.0041581	
0.00352	-0.00388595	
0.003525	-0.00352271	
0.00353	-0.00311659	
0.003535	-0.00270142	
0.00354	-0.0022999	
0.003545	-0.00192639	
0.00355	-0.001589	
0.003555	-0.00124385	
0.00356	-0.000814845	
0.003565	-0.000350836	
0.00357	6.67703E-5	
0.003575	0.000481564	
0.00358	0.00092242	
0.003585	0.00135961	
0.00359	0.0017737	
0.003595	0.00220052	
0.0036	0.00266306	
0.003605	0.0031273	
0.00361	0.00366576	
0.003615	0.00432276	
0.00362	0.00497931	
0.003625	0.00560451	
0.00363	0.00627454	
0.003635	0.00698997	
0.00364	0.00770151	
0.003645	0.00842434	
0.00365	0.00921552	
0.003655	0.0100619	
0.00366	0.0109046	
0.003665	0.0117525	
0.00367	0.0126589	
0.003675	0.0136085	
0.00368	0.0145417	
0.003685	0.0154674	
0.00369	0.016392	
0.003695	0.0172721	
0.0037	0.0181763	
0.003705	0.0191962	
0.00371	0.0202918	
0.003715	0.0213854	
0.00372	0.0224734	
0.003725	0.0236015	
0.00373	0.0247501	
0.003735	0.025858	
0.00374	0.0269341	
0.003745	0.0280334	
0.00375	0.0291436	
0.003755	0.030256	
0.00376	0.0313647	
0.003765	0.0324187	
0.00377	0.0334341	
0.003775	0.0344712	
0.00378	0.0355686	
0.003785	0.0367015	
0.00379	0.0378516	
0.003795	0.0390538	
0.0038	0.040281	
0.003805	0.0414666	
0.00381	0.0426163	
0.003815	0.043783	
0.00382	0.0449533	
0.003825	0.0460705	
0.00383	0.0471475	
0.003835	0.0482421	
0.00384	0.0493916	
0.003845	0.050618	
0.00385	0.0518846	
0.003855	0.0531178	
0.00386	0.0543183	
0.003865	0.0555829	
0.00387	0.0569251	
0.003875	0.058255	
0.00388	0.0596089	
0.003885	0.0610573	
0.00389	0.0625469	
0.003895	0.0640409	
0.0039	0.0655621	
0.003905	0.0670768	
0.00391	0.0685632	
0.003915	0.0700556	
0.00392	0.071529	
0.003925	0.0729202	
0.00393	0.0741913	
0.003935	0.0753707	
0.00394	0.0765764	
0.003945	0.0778376	
0.00395	0.0791231	
0.003955	0.0804591	
0.00396	0.081765	
0.003965	0.0829895	
0.00397	0.0841973	
0.003975	0.0853846	
0.00398	0.0865022	
0.003985	0.0875685	
0.00399	0.0886456	
0.003995	0.0897265	
0.004	0.0908062	
0.004005	0.0919768	
0.00401	0.0932469	
0.004015	0.094475	
0.00402	0.0955699	
0.004025	0.0965726	
0.00403	0.0975622	
0.004035	0.0985439	
0.00404	0.098856	
0.004045	0.0974284	
0.00405	0.0942082	
0.004055	0.0899109	
0.00406	0.0851066	
0.004065	0.0801953	
0.00407	0.0754457	
0.004075	0.0710273	
0.00408	0.0670364	
0.004085	0.063516	
0.00409	0.0604725	
0.004095	0.0578872	
0.0041	0.0557264	
0.004105	0.0539001	
0.00411	0.0522857	
0.004115	0.0508398	
0.00412	0.0495734	
0.004125	0.0484853	
0.00413	0.0475661	
0.004135	0.0468019	
0.00414	0.0461284	
0.004145	0.0454515	
0.00415	0.0447569	
0.004155	0.0440359	
0.00416	0.0432365	
0.004165	0.0423757	
0.00417	0.0415151	
0.004175	0.0406955	
0.00418	0.0399415	
0.004185	0.0392665	
0.00419	0.0386279	
0.004195	0.0379486	
0.0042	0.0372269	
0.004205	0.0365114	
0.00421	0.0357864	
0.004215	0.0349943	
0.00422	0.0341478	
0.004225	0.0333056	
0.00423	0.032506	
0.004235	0.0317723	
0.00424	0.0310693	
0.004245	0.0303246	
0.00425	0.0295402	
0.004255	0.0287666	
0.00426	0.0280369	
0.004265	0.0273705	
0.00427	0.0267298	
0.004275	0.0260414	
0.00428	0.0253065	
0.004285	0.0245282	
0.00429	0.0237105	
0.004295	0.0229531	
0.0043	0.0222713	
0.004305	0.0215764	
0.00431	0.0208583	
0.004315	0.0201113	
0.00432	0.0192856	
0.004325	0.0184469	
0.00433	0.0177344	
0.004335	0.0171389	
0.00434	0.0165536	
0.004345	0.0159552	
0.00435	0.0153764	
0.004355	0.0147904	
0.00436	0.0141322	
0.004365	0.0134102	
0.00437	0.0126801	
0.004375	0.0119793	
0.00438	0.0113309	
0.004385	0.0107002	
0.00439	0.0100159	
0.004395	0.00928119	
0.0044	0.0085479	
0.004405	0.00785025	
0.00441	0.00720911	
0.004415	0.00663554	
0.00442	0.00608612	
0.004425	0.00548355	
0.00443	0.00482688	
0.004435	0.00416561	
0.00444	0.00353259	
0.004445	0.00294812	
0.00445	0.00237578	
0.004455	0.00174344	
0.00446	0.00105391	
0.004465	0.000359281	
0.00447	-0.000353387	
0.004475	-0.00109178	
0.00448	-0.0018122	
0.004485	-0.00248671	
0.00449	-0.00309904	
0.004495	-0.00364141	
0.0045	-0.004112	
0.004505	-0.00456054	
0.00451	-0.00502086	
0.004515	-0.00546718	
0.00452	-0.00588315	
0.004525	-0.00625945	
0.00453	-0.00663931	
0.004535	-0.00705111	
0.00454	-0.00746447	
0.004545	-0.00790686	
0.00455	-0.00839499	
0.004555	-0.0088902	
0.00456	-0.00936665	
0.004565	-0.0098082	
0.00457	-0.0102058	
0.004575	-0.0106033	
0.00458	-0.0110769	
0.004585	-0.0116257	
0.00459	-0.0121984	
0.004595	-0.0127595	
0.0046	-0.0132866	
0.004605	-0.0137662	
0.00461	-0.0141444	
0.004615	-0.0143903	
0.00462	-0.0145848	
0.004625	-0.0147837	
0.00463	-0.0149763	
0.004635	-0.015203	
0.00464	-0.015489	
0.004645	-0.0157531	
0.00465	-0.0159427	
0.004655	-0.0161218	
0.00466	-0.0163805	
0.004665	-0.0167271	
0.00467	-0.0171151	
0.004675	-0.0175121	
0.00468	-0.0178964	
0.004685	-0.0182539	
0.00469	-0.0185771	
0.004695	-0.0188621	
0.0047	-0.0191562	
0.004705	-0.0194899	
0.00471	-0.0198338	
0.004715	-0.0201683	
0.00472	-0.0204806	
0.004725	-0.0208112	
0.00473	-0.0211857	
0.004735	-0.0215239	
0.00474	-0.0217747	
0.004745	-0.0220034	
0.00475	-0.0222544	
0.004755	-0.0225081	
0.00476	-0.0227041	
0.004765	-0.0227578	
0.00477	-0.022715	
0.004775	-0.0227057	
0.00478	-0.022719	
0.004785	-0.0226515	
0.00479	-0.0224863	
0.004795	-0.022312	
0.0048	-0.0222352	
0.004805	-0.0222737	
0.00481	-0.0223864	
0.004815	-0.0224952	
0.00482	-0.0225012	
0.004825	-0.0223917	
0.00483	-0.022211	
0.004835	-0.0219921	
0.00484	-0.0217583	
0.004845	-0.0215258	
0.00485	-0.021305	
0.004855	-0.0211025	
0.00486	-0.020874	
0.004865	-0.0205442	
0.00487	-0.0201156	
0.004875	-0.0196422	
0.00488	-0.0192091	
0.004885	-0.0189181	
0.00489	-0.0187822	
0.004895	-0.0187075	
0.0049	-0.018629	
0.004905	-0.0185517	
0.00491	-0.0184315	
0.004915	-0.018241	
0.00492	-0.0180132	
0.004925	-0.0177716	
0.00493	-0.0175323	
0.004935	-0.0173058	
0.00494	-0.017051	
0.004945	-0.0166945	
0.00495	-0.0162878	
0.004955	-0.0159147	
0.00496	-0.015534	
0.004965	-0.0151187	
0.00497	-0.0146526	
0.004975	-0.0140801	
0.00498	-0.0134645	
0.004985	-0.0128496	
0.00499	-0.0121692	
0.004995	-0.0114777	
