Time - Plot 0	Amplitude - Plot 0	
0	0.126497	
5E-6	0.126081	
1E-5	0.125643	
1.5E-5	0.125211	
2E-5	0.124803	
2.5E-5	0.12443	
3E-5	0.124051	
3.5E-5	0.123638	
4E-5	0.123222	
4.5E-5	0.122824	
5E-5	0.122457	
5.5E-5	0.122079	
6E-5	0.121618	
6.5E-5	0.121075	
7E-5	0.120505	
7.5E-5	0.119944	
8E-5	0.119462	
8.5E-5	0.119104	
9E-5	0.118748	
9.5E-5	0.118269	
0.0001	0.117682	
0.000105	0.117054	
0.00011	0.116427	
0.000115	0.115831	
0.00012	0.115236	
0.000125	0.114574	
0.00013	0.113853	
0.000135	0.113126	
0.00014	0.11243	
0.000145	0.11174	
0.00015	0.110991	
0.000155	0.110239	
0.00016	0.109615	
0.000165	0.109105	
0.00017	0.108648	
0.000175	0.108246	
0.00018	0.107853	
0.000185	0.107436	
0.00019	0.107023	
0.000195	0.106633	
0.0002	0.106228	
0.000205	0.105738	
0.00021	0.105215	
0.000215	0.104742	
0.00022	0.104277	
0.000225	0.103792	
0.00023	0.103317	
0.000235	0.10287	
0.00024	0.102464	
0.000245	0.102056	
0.00025	0.101618	
0.000255	0.101182	
0.00026	0.100767	
0.000265	0.100385	
0.00027	0.0999971	
0.000275	0.0995747	
0.00028	0.0991025	
0.000285	0.0985721	
0.00029	0.0980761	
0.000295	0.0976261	
0.0003	0.0971327	
0.000305	0.096634	
0.00031	0.0962505	
0.000315	0.0959611	
0.00032	0.0956523	
0.000325	0.0953454	
0.00033	0.0951017	
0.000335	0.0948637	
0.00034	0.0945933	
0.000345	0.0943141	
0.00035	0.0940425	
0.000355	0.0937887	
0.00036	0.0935586	
0.000365	0.0933075	
0.00037	0.0929593	
0.000375	0.0925161	
0.00038	0.0920312	
0.000385	0.0915893	
0.00039	0.0912917	
0.000395	0.0911033	
0.0004	0.0909007	
0.000405	0.0906509	
0.00041	0.0903817	
0.000415	0.0901125	
0.00042	0.089856	
0.000425	0.08962	
0.00043	0.0894087	
0.000435	0.0892236	
0.00044	0.0890647	
0.000445	0.0889304	
0.00045	0.0888188	
0.000455	0.0887274	
0.00046	0.0886537	
0.000465	0.088595	
0.00047	0.0885016	
0.000475	0.0882946	
0.00048	0.0880225	
0.000485	0.0877679	
0.00049	0.0875368	
0.000495	0.0873322	
0.0005	0.0871072	
0.000505	0.0868794	
0.00051	0.0867555	
0.000515	0.0867061	
0.00052	0.0866606	
0.000525	0.0866198	
0.00053	0.086584	
0.000535	0.0865532	
0.00054	0.0864797	
0.000545	0.0863814	
0.00055	0.086319	
0.000555	0.0862357	
0.00056	0.0861425	
0.000565	0.0860947	
0.00057	0.0859842	
0.000575	0.0857898	
0.00058	0.0856445	
0.000585	0.0855385	
0.00059	0.0854157	
0.000595	0.0852878	
0.0006	0.0851625	
0.000605	0.0850449	
0.00061	0.0849379	
0.000615	0.0848905	
0.00062	0.0849321	
0.000625	0.084983	
0.00063	0.08499	
0.000635	0.0850153	
0.00064	0.085099	
0.000645	0.0852173	
0.00065	0.0854002	
0.000655	0.0857123	
0.00066	0.0861897	
0.000665	0.0868488	
0.00067	0.0876914	
0.000675	0.0886628	
0.00068	0.0896731	
0.000685	0.0907089	
0.00069	0.0918075	
0.000695	0.0929431	
0.0007	0.0940969	
0.000705	0.0953033	
0.00071	0.0965347	
0.000715	0.097772	
0.00072	0.0990497	
0.000725	0.100389	
0.00073	0.1018	
0.000735	0.103239	
0.00074	0.104677	
0.000745	0.106188	
0.00075	0.107866	
0.000755	0.10967	
0.00076	0.111424	
0.000765	0.11311	
0.00077	0.114813	
0.000775	0.116448	
0.00078	0.117913	
0.000785	0.119243	
0.00079	0.120518	
0.000795	0.121742	
0.0008	0.122923	
0.000805	0.124115	
0.00081	0.125306	
0.000815	0.126486	
0.00082	0.127699	
0.000825	0.128924	
0.00083	0.130098	
0.000835	0.131232	
0.00084	0.13238	
0.000845	0.13353	
0.00085	0.13458	
0.000855	0.135467	
0.00086	0.1363	
0.000865	0.137247	
0.00087	0.138368	
0.000875	0.139598	
0.00088	0.140841	
0.000885	0.142082	
0.00089	0.143311	
0.000895	0.144473	
0.0009	0.145631	
0.000905	0.146875	
0.00091	0.148164	
0.000915	0.149421	
0.00092	0.150646	
0.000925	0.151886	
0.00093	0.153126	
0.000935	0.154354	
0.00094	0.155564	
0.000945	0.156705	
0.00095	0.157793	
0.000955	0.158844	
0.00096	0.159819	
0.000965	0.160746	
0.00097	0.161693	
0.000975	0.162656	
0.00098	0.163631	
0.000985	0.164663	
0.00099	0.165731	
0.000995	0.166773	
0.001	0.167795	
0.001005	0.168804	
0.00101	0.169757	
0.001015	0.170674	
0.00102	0.171573	
0.001025	0.172417	
0.00103	0.173232	
0.001035	0.174037	
0.00104	0.17475	
0.001045	0.175369	
0.00105	0.175991	
0.001055	0.176634	
0.00106	0.17726	
0.001065	0.177845	
0.00107	0.178423	
0.001075	0.179064	
0.00108	0.179764	
0.001085	0.180469	
0.00109	0.181145	
0.001095	0.18177	
0.0011	0.18233	
0.001105	0.182823	
0.00111	0.183247	
0.001115	0.183606	
0.00112	0.183905	
0.001125	0.184198	
0.00113	0.184568	
0.001135	0.185019	
0.00114	0.18555	
0.001145	0.186203	
0.00115	0.186953	
0.001155	0.187732	
0.00116	0.188446	
0.001165	0.189035	
0.00117	0.189562	
0.001175	0.19007	
0.00118	0.190542	
0.001185	0.190968	
0.00119	0.191343	
0.001195	0.191667	
0.0012	0.191942	
0.001205	0.192172	
0.00121	0.192361	
0.001215	0.192514	
0.00122	0.192637	
0.001225	0.192733	
0.00123	0.192807	
0.001235	0.192864	
0.00124	0.192906	
0.001245	0.192936	
0.00125	0.192958	
0.001255	0.192972	
0.00126	0.193029	
0.001265	0.193158	
0.00127	0.193282	
0.001275	0.193349	
0.00128	0.193374	
0.001285	0.193515	
0.00129	0.193866	
0.001295	0.194198	
0.0013	0.194359	
0.001305	0.194398	
0.00131	0.194357	
0.001315	0.194216	
0.00132	0.193969	
0.001325	0.193664	
0.00133	0.193334	
0.001335	0.193052	
0.00134	0.192814	
0.001345	0.192569	
0.00135	0.192332	
0.001355	0.192062	
0.00136	0.191737	
0.001365	0.191391	
0.00137	0.191047	
0.001375	0.19072	
0.00138	0.190421	
0.001385	0.190154	
0.00139	0.189921	
0.001395	0.189721	
0.0014	0.189552	
0.001405	0.189412	
0.00141	0.189251	
0.001415	0.188987	
0.00142	0.188621	
0.001425	0.188205	
0.00143	0.187775	
0.001435	0.187309	
0.00144	0.186795	
0.001445	0.186319	
0.00145	0.18594	
0.001455	0.185642	
0.00146	0.185364	
0.001465	0.185017	
0.00147	0.184594	
0.001475	0.18414	
0.00148	0.183688	
0.001485	0.183259	
0.00149	0.182816	
0.001495	0.182339	
0.0015	0.181862	
0.001505	0.181359	
0.00151	0.180816	
0.001515	0.180224	
0.00152	0.179581	
0.001525	0.178982	
0.00153	0.178488	
0.001535	0.178086	
0.00154	0.177717	
0.001545	0.177292	
0.00155	0.176802	
0.001555	0.176292	
0.00156	0.175747	
0.001565	0.175156	
0.00157	0.174563	
0.001575	0.173949	
0.00158	0.173302	
0.001585	0.172665	
0.00159	0.172065	
0.001595	0.171516	
0.0016	0.171028	
0.001605	0.170603	
0.00161	0.170192	
0.001615	0.169715	
0.00162	0.169169	
0.001625	0.168603	
0.00163	0.168004	
0.001635	0.167316	
0.00164	0.166554	
0.001645	0.16578	
0.00165	0.165034	
0.001655	0.164343	
0.00166	0.163719	
0.001665	0.16317	
0.00167	0.162744	
0.001675	0.162466	
0.00168	0.162252	
0.001685	0.161994	
0.00169	0.161673	
0.001695	0.161326	
0.0017	0.160929	
0.001705	0.160471	
0.00171	0.159995	
0.001715	0.15953	
0.00172	0.159093	
0.001725	0.158648	
0.00173	0.158171	
0.001735	0.157696	
0.00174	0.157245	
0.001745	0.156831	
0.00175	0.156412	
0.001755	0.155964	
0.00176	0.155517	
0.001765	0.155092	
0.00177	0.154702	
0.001775	0.154353	
0.00178	0.154	
0.001785	0.153567	
0.00179	0.153052	
0.001795	0.15251	
0.0018	0.151974	
0.001805	0.151468	
0.00181	0.150957	
0.001815	0.150421	
0.00182	0.149893	
0.001825	0.149396	
0.00183	0.148942	
0.001835	0.148491	
0.00184	0.148015	
0.001845	0.147546	
0.00185	0.147198	
0.001855	0.147042	
0.00186	0.146876	
0.001865	0.146571	
0.00187	0.146234	
0.001875	0.145941	
0.00188	0.14569	
0.001885	0.145479	
0.00189	0.145256	
0.001895	0.144989	
0.0019	0.144706	
0.001905	0.144377	
0.00191	0.143986	
0.001915	0.143574	
0.00192	0.143166	
0.001925	0.14278	
0.00193	0.142428	
0.001935	0.142114	
0.00194	0.14184	
0.001945	0.141606	
0.00195	0.141409	
0.001955	0.141246	
0.00196	0.141065	
0.001965	0.140786	
0.00197	0.140408	
0.001975	0.14003	
0.00198	0.139718	
0.001985	0.139416	
0.00199	0.139135	
0.001995	0.138929	
0.002	0.138735	
0.002005	0.138509	
0.00201	0.138274	
0.002015	0.138044	
0.00202	0.137781	
0.002025	0.13746	
0.00203	0.137164	
0.002035	0.136946	
0.00204	0.13679	
0.002045	0.136682	
0.00205	0.136564	
0.002055	0.136349	
0.00206	0.13608	
0.002065	0.135884	
0.00207	0.13584	
0.002075	0.135946	
0.00208	0.136051	
0.002085	0.136055	
0.00209	0.136039	
0.002095	0.136012	
0.0021	0.135931	
0.002105	0.135818	
0.00211	0.135689	
0.002115	0.135557	
0.00212	0.13538	
0.002125	0.135182	
0.00213	0.135028	
0.002135	0.134909	
0.00214	0.134867	
0.002145	0.134926	
0.00215	0.135047	
0.002155	0.135205	
0.00216	0.135379	
0.002165	0.135555	
0.00217	0.135677	
0.002175	0.135663	
0.00218	0.135559	
0.002185	0.135448	
0.00219	0.135291	
0.002195	0.135111	
0.0022	0.135019	
0.002205	0.135037	
0.00221	0.135032	
0.002215	0.134916	
0.00222	0.134829	
0.002225	0.134859	
0.00223	0.134965	
0.002235	0.135116	
0.00224	0.13529	
0.002245	0.13547	
0.00225	0.135647	
0.002255	0.135812	
0.00226	0.135962	
0.002265	0.136095	
0.00227	0.136211	
0.002275	0.13631	
0.00228	0.136392	
0.002285	0.136461	
0.00229	0.136564	
0.002295	0.13678	
0.0023	0.137108	
0.002305	0.137447	
0.00231	0.137729	
0.002315	0.138009	
0.00232	0.13832	
0.002325	0.138639	
0.00233	0.138898	
0.002335	0.139108	
0.00234	0.139369	
0.002345	0.14084	
0.00235	0.145701	
0.002355	0.154422	
0.00236	0.165608	
0.002365	0.177889	
0.00237	0.190313	
0.002375	0.20229	
0.00238	0.213501	
0.002385	0.223345	
0.00239	0.231012	
0.002395	0.236407	
0.0024	0.240002	
0.002405	0.242286	
0.00241	0.243741	
0.002415	0.244723	
0.00242	0.245441	
0.002425	0.246048	
0.00243	0.246694	
0.002435	0.247526	
0.00244	0.248584	
0.002445	0.249835	
0.00245	0.251203	
0.002455	0.252678	
0.00246	0.254296	
0.002465	0.255932	
0.00247	0.257503	
0.002475	0.259099	
0.00248	0.260778	
0.002485	0.262481	
0.00249	0.264166	
0.002495	0.265855	
0.0025	0.267514	
0.002505	0.269122	
0.00251	0.270669	
0.002515	0.272101	
0.00252	0.273438	
0.002525	0.274697	
0.00253	0.275891	
0.002535	0.27713	
0.00254	0.278482	
0.002545	0.279892	
0.00255	0.281273	
0.002555	0.282619	
0.00256	0.283971	
0.002565	0.285312	
0.00257	0.286629	
0.002575	0.287916	
0.00258	0.289075	
0.002585	0.290094	
0.00259	0.291116	
0.002595	0.292186	
0.0026	0.293285	
0.002605	0.294494	
0.00261	0.295765	
0.002615	0.296922	
0.00262	0.29795	
0.002625	0.298938	
0.00263	0.299854	
0.002635	0.300678	
0.00264	0.301499	
0.002645	0.302326	
0.00265	0.303117	
0.002655	0.303848	
0.00266	0.304552	
0.002665	0.305253	
0.00267	0.305965	
0.002675	0.306747	
0.00268	0.307585	
0.002685	0.308421	
0.00269	0.309215	
0.002695	0.309945	
0.0027	0.310645	
0.002705	0.311387	
0.00271	0.31217	
0.002715	0.312895	
0.00272	0.3135	
0.002725	0.314044	
0.00273	0.314571	
0.002735	0.315061	
0.00274	0.315551	
0.002745	0.316113	
0.00275	0.316744	
0.002755	0.317389	
0.00276	0.317967	
0.002765	0.318425	
0.00277	0.31883	
0.002775	0.319229	
0.00278	0.319604	
0.002785	0.319946	
0.00279	0.320251	
0.002795	0.320563	
0.0028	0.320913	
0.002805	0.321272	
0.00281	0.32162	
0.002815	0.321896	
0.00282	0.322065	
0.002825	0.322154	
0.00283	0.322235	
0.002835	0.322353	
0.00284	0.322444	
0.002845	0.322512	
0.00285	0.322656	
0.002855	0.322844	
0.00286	0.323005	
0.002865	0.32314	
0.00287	0.323204	
0.002875	0.323171	
0.00288	0.323028	
0.002885	0.322771	
0.00289	0.322452	
0.002895	0.322058	
0.0029	0.321588	
0.002905	0.321041	
0.00291	0.320374	
0.002915	0.319613	
0.00292	0.318825	
0.002925	0.318057	
0.00293	0.31729	
0.002935	0.316466	
0.00294	0.315596	
0.002945	0.314736	
0.00295	0.313876	
0.002955	0.313009	
0.00296	0.312226	
0.002965	0.311536	
0.00297	0.310892	
0.002975	0.310261	
0.00298	0.309573	
0.002985	0.308834	
0.00299	0.308047	
0.002995	0.307219	
0.003	0.306355	
0.003005	0.305414	
0.00301	0.304419	
0.003015	0.303434	
0.00302	0.302504	
0.003025	0.301606	
0.00303	0.300676	
0.003035	0.299722	
0.00304	0.29875	
0.003045	0.297764	
0.00305	0.296816	
0.003055	0.295889	
0.00306	0.294974	
0.003065	0.294109	
0.00307	0.293318	
0.003075	0.292566	
0.00308	0.291733	
0.003085	0.290742	
0.00309	0.289648	
0.003095	0.288536	
0.0031	0.287466	
0.003105	0.286427	
0.00311	0.285409	
0.003115	0.284501	
0.00312	0.283661	
0.003125	0.282762	
0.00313	0.281868	
0.003135	0.28102	
0.00314	0.280193	
0.003145	0.27942	
0.00315	0.278672	
0.003155	0.27788	
0.00316	0.277002	
0.003165	0.276013	
0.00317	0.274951	
0.003175	0.27389	
0.00318	0.272834	
0.003185	0.271734	
0.00319	0.270564	
0.003195	0.269402	
0.0032	0.268395	
0.003205	0.267539	
0.00321	0.26668	
0.003215	0.265764	
0.00322	0.264854	
0.003225	0.263944	
0.00323	0.262981	
0.003235	0.261982	
0.00324	0.261054	
0.003245	0.260216	
0.00325	0.259382	
0.003255	0.258544	
0.00326	0.257693	
0.003265	0.256781	
0.00327	0.255775	
0.003275	0.254708	
0.00328	0.253699	
0.003285	0.252775	
0.00329	0.251809	
0.003295	0.250766	
0.0033	0.249721	
0.003305	0.248724	
0.00331	0.247854	
0.003315	0.247108	
0.00332	0.246385	
0.003325	0.245663	
0.00333	0.244929	
0.003335	0.244174	
0.00334	0.243488	
0.003345	0.242833	
0.00335	0.242039	
0.003355	0.241095	
0.00336	0.240098	
0.003365	0.239065	
0.00337	0.23801	
0.003375	0.237038	
0.00338	0.236166	
0.003385	0.235307	
0.00339	0.234401	
0.003395	0.233413	
0.0034	0.23237	
0.003405	0.231339	
0.00341	0.230365	
0.003415	0.229428	
0.00342	0.228512	
0.003425	0.227652	
0.00343	0.226823	
0.003435	0.226006	
0.00344	0.225236	
0.003445	0.224485	
0.00345	0.223688	
0.003455	0.22285	
0.00346	0.222024	
0.003465	0.221247	
0.00347	0.220489	
0.003475	0.219687	
0.00348	0.218844	
0.003485	0.218015	
0.00349	0.217235	
0.003495	0.216523	
0.0035	0.215842	
0.003505	0.215167	
0.00351	0.214575	
0.003515	0.214066	
0.00352	0.21354	
0.003525	0.212981	
0.00353	0.212379	
0.003535	0.211681	
0.00354	0.210906	
0.003545	0.210117	
0.00355	0.209356	
0.003555	0.20865	
0.00356	0.208012	
0.003565	0.207451	
0.00357	0.206918	
0.003575	0.206335	
0.00358	0.205746	
0.003585	0.205228	
0.00359	0.204735	
0.003595	0.204233	
0.0036	0.20375	
0.003605	0.203301	
0.00361	0.202849	
0.003615	0.202321	
0.00362	0.201721	
0.003625	0.201101	
0.00363	0.200498	
0.003635	0.199934	
0.00364	0.199422	
0.003645	0.19897	
0.00365	0.19853	
0.003655	0.198025	
0.00366	0.197499	
0.003665	0.197034	
0.00367	0.196629	
0.003675	0.196284	
0.00368	0.195853	
0.003685	0.195241	
0.00369	0.194635	
0.003695	0.194109	
0.0037	0.193565	
0.003705	0.192988	
0.00371	0.192417	
0.003715	0.191923	
0.00372	0.191552	
0.003725	0.191231	
0.00373	0.190912	
0.003735	0.190608	
0.00374	0.190329	
0.003745	0.190032	
0.00375	0.18969	
0.003755	0.189334	
0.00376	0.188938	
0.003765	0.188488	
0.00377	0.188022	
0.003775	0.187568	
0.00378	0.187144	
0.003785	0.186569	
0.00379	0.185732	
0.003795	0.184952	
0.0038	0.184436	
0.003805	0.184119	
0.00381	0.183949	
0.003815	0.183882	
0.00382	0.18384	
0.003825	0.183768	
0.00383	0.183728	
0.003835	0.183759	
0.00384	0.183834	
0.003845	0.183887	
0.00385	0.183829	
0.003855	0.1837	
0.00386	0.183625	
0.003865	0.18359	
0.00387	0.183487	
0.003875	0.183345	
0.00388	0.18323	
0.003885	0.18314	
0.00389	0.18307	
0.003895	0.182969	
0.0039	0.182804	
0.003905	0.182606	
0.00391	0.182395	
0.003915	0.182185	
0.00392	0.181986	
0.003925	0.181804	
0.00393	0.181689	
0.003935	0.181671	
0.00394	0.18167	
0.003945	0.181681	
0.00395	0.181794	
0.003955	0.182017	
0.00396	0.182254	
0.003965	0.182441	
0.00397	0.182635	
0.003975	0.18287	
0.00398	0.183123	
0.003985	0.183375	
0.00399	0.183614	
0.003995	0.183834	
0.004	0.184031	
0.004005	0.184155	
0.00401	0.184178	
0.004015	0.184181	
0.00402	0.184219	
0.004025	0.184276	
0.00403	0.184345	
0.004035	0.184418	
0.00404	0.18449	
0.004045	0.184558	
0.00405	0.18462	
0.004055	0.184676	
0.00406	0.184771	
0.004065	0.184985	
0.00407	0.18536	
0.004075	0.185919	
0.00408	0.186622	
0.004085	0.187385	
0.00409	0.188199	
0.004095	0.189057	
0.0041	0.189902	
0.004105	0.18875	
0.00411	0.182486	
0.004115	0.171484	
0.00412	0.158352	
0.004125	0.144867	
0.00413	0.132118	
0.004135	0.120696	
0.00414	0.110926	
0.004145	0.103041	
0.00415	0.0970559	
0.004155	0.0927976	
0.00416	0.0901166	
0.004165	0.0888877	
0.00417	0.088912	
0.004175	0.0899041	
0.00418	0.0916774	
0.004185	0.0941672	
0.00419	0.0972494	
0.004195	0.100766	
0.0042	0.104546	
0.004205	0.108464	
0.00421	0.112476	
0.004215	0.116505	
0.00422	0.120543	
0.004225	0.124587	
0.00423	0.128491	
0.004235	0.132213	
0.00424	0.135829	
0.004245	0.139395	
0.00425	0.142854	
0.004255	0.146126	
0.00426	0.149263	
0.004265	0.152305	
0.00427	0.155235	
0.004275	0.158001	
0.00428	0.160576	
0.004285	0.162997	
0.00429	0.165298	
0.004295	0.167505	
0.0043	0.169595	
0.004305	0.171555	
0.00431	0.173432	
0.004315	0.175261	
0.00432	0.177066	
0.004325	0.178818	
0.00433	0.1805	
0.004335	0.182151	
0.00434	0.183799	
0.004345	0.185461	
0.00435	0.187055	
0.004355	0.18848	
0.00436	0.189775	
0.004365	0.190969	
0.00437	0.192041	
0.004375	0.19303	
0.00438	0.193963	
0.004385	0.194817	
0.00439	0.195578	
0.004395	0.196241	
0.0044	0.196856	
0.004405	0.197457	
0.00441	0.198022	
0.004415	0.198535	
0.00442	0.199038	
0.004425	0.199558	
0.00443	0.200016	
0.004435	0.200413	
0.00444	0.200798	
0.004445	0.201156	
0.00445	0.20148	
0.004455	0.201719	
0.00446	0.201843	
0.004465	0.201885	
0.00447	0.201871	
0.004475	0.201821	
0.00448	0.201797	
0.004485	0.201838	
0.00449	0.201874	
0.004495	0.201809	
0.0045	0.201633	
0.004505	0.201392	
0.00451	0.20112	
0.004515	0.20084	
0.00452	0.200568	
0.004525	0.200314	
0.00453	0.200085	
0.004535	0.199882	
0.00454	0.199659	
0.004545	0.199385	
0.00455	0.199091	
0.004555	0.198797	
0.00456	0.198328	
0.004565	0.197527	
0.00457	0.196641	
0.004575	0.195883	
0.00458	0.195245	
0.004585	0.194716	
0.00459	0.194285	
0.004595	0.193891	
0.0046	0.193444	
0.004605	0.192937	
0.00461	0.192414	
0.004615	0.191857	
0.00462	0.191115	
0.004625	0.190142	
0.00463	0.189112	
0.004635	0.188139	
0.00464	0.187298	
0.004645	0.186632	
0.00465	0.186064	
0.004655	0.185493	
0.00466	0.184852	
0.004665	0.184148	
0.00467	0.183435	
0.004675	0.182702	
0.00468	0.181897	
0.004685	0.181034	
0.00469	0.180221	
0.004695	0.179479	
0.0047	0.178725	
0.004705	0.177951	
0.00471	0.177199	
0.004715	0.176452	
0.00472	0.175646	
0.004725	0.174793	
0.00473	0.17395	
0.004735	0.173152	
0.00474	0.172517	
0.004745	0.172068	
0.00475	0.171571	
0.004755	0.170925	
0.00476	0.170258	
0.004765	0.169608	
0.00477	0.168859	
0.004775	0.167984	
0.00478	0.167067	
0.004785	0.166166	
0.00479	0.165271	
0.004795	0.16428	
0.0048	0.163177	
0.004805	0.162099	
0.00481	0.16109	
0.004815	0.160078	
0.00482	0.159113	
0.004825	0.158318	
0.00483	0.157675	
0.004835	0.157065	
0.00484	0.156413	
0.004845	0.155715	
0.00485	0.15502	
0.004855	0.154312	
0.00486	0.153583	
0.004865	0.152777	
0.00487	0.151818	
0.004875	0.15085	
0.00488	0.150017	
0.004885	0.149265	
0.00489	0.148554	
0.004895	0.147857	
0.0049	0.147249	
0.004905	0.146824	
0.00491	0.146397	
0.004915	0.145846	
0.00492	0.145239	
0.004925	0.144577	
0.00493	0.143862	
0.004935	0.143194	
0.00494	0.142636	
0.004945	0.142129	
0.00495	0.141584	
0.004955	0.140946	
0.00496	0.140181	
0.004965	0.139321	
0.00497	0.138487	
0.004975	0.137709	
0.00498	0.136862	
0.004985	0.135962	
0.00499	0.135118	
0.004995	0.134303	
0.005	0.133545	
0.005005	0.132909	
0.00501	0.132335	
0.005015	0.131782	
0.00502	0.131222	
0.005025	0.130635	
0.00503	0.130059	
0.005035	0.129469	
0.00504	0.128852	
0.005045	0.128292	
0.00505	0.127844	
0.005055	0.127444	
0.00506	0.127047	
0.005065	0.126623	
0.00507	0.126154	
0.005075	0.125677	
0.00508	0.12517	
0.005085	0.124668	
0.00509	0.124239	
0.005095	0.123879	
0.0051	0.123582	
0.005105	0.123293	
0.00511	0.122975	
0.005115	0.122606	
0.00512	0.122173	
0.005125	0.121765	
0.00513	0.121442	
0.005135	0.121141	
0.00514	0.120775	
0.005145	0.120383	
0.00515	0.120039	
0.005155	0.119697	
0.00516	0.119324	
0.005165	0.118949	
0.00517	0.118541	
0.005175	0.118085	
0.00518	0.117619	
0.005185	0.117119	
0.00519	0.116574	
0.005195	0.116025	
0.0052	0.1155	
0.005205	0.115014	
0.00521	0.114578	
0.005215	0.114148	
0.00522	0.113646	
0.005225	0.113074	
0.00523	0.112483	
0.005235	0.111907	
0.00524	0.11132	
0.005245	0.110659	
0.00525	0.109981	
0.005255	0.109418	
0.00526	0.108958	
0.005265	0.108492	
0.00527	0.107998	
0.005275	0.10746	
0.00528	0.106871	
0.005285	0.106276	
0.00529	0.105659	
0.005295	0.105008	
0.0053	0.104366	
0.005305	0.103807	
0.00531	0.103377	
0.005315	0.103006	
0.00532	0.102642	
0.005325	0.102254	
0.00533	0.10182	
0.005335	0.101376	
0.00534	0.1009	
0.005345	0.100377	
0.00535	0.0998479	
0.005355	0.0993399	
0.00536	0.0988698	
0.005365	0.0984469	
0.00537	0.0980752	
0.005375	0.0977547	
0.00538	0.0974833	
0.005385	0.0972094	
0.00539	0.0968519	
0.005395	0.0964085	
0.0054	0.0959295	
0.005405	0.0954497	
0.00541	0.0949921	
0.005415	0.0945707	
0.00542	0.0941931	
