Time - Plot 0	Amplitude - Plot 0	
0	0.147196	
5E-6	0.146418	
1E-5	0.145634	
1.5E-5	0.144884	
2E-5	0.144192	
2.5E-5	0.143523	
3E-5	0.142854	
3.5E-5	0.142216	
4E-5	0.141581	
4.5E-5	0.140931	
5E-5	0.140301	
5.5E-5	0.139715	
6E-5	0.139185	
6.5E-5	0.138717	
7E-5	0.138313	
7.5E-5	0.137921	
8E-5	0.137462	
8.5E-5	0.136932	
9E-5	0.136381	
9.5E-5	0.135842	
0.0001	0.135336	
0.000105	0.134828	
0.00011	0.134249	
0.000115	0.133602	
0.00012	0.132988	
0.000125	0.132473	
0.00013	0.131999	
0.000135	0.131529	
0.00014	0.131082	
0.000145	0.130672	
0.00015	0.130306	
0.000155	0.129985	
0.00016	0.129616	
0.000165	0.129088	
0.00017	0.128482	
0.000175	0.1279	
0.00018	0.127361	
0.000185	0.126828	
0.00019	0.126278	
0.000195	0.125789	
0.0002	0.125412	
0.000205	0.125126	
0.00021	0.124866	
0.000215	0.124588	
0.00022	0.124359	
0.000225	0.124173	
0.00023	0.123929	
0.000235	0.12361	
0.00024	0.123258	
0.000245	0.122901	
0.00025	0.122556	
0.000255	0.122237	
0.00026	0.121949	
0.000265	0.121695	
0.00027	0.121476	
0.000275	0.121291	
0.00028	0.121088	
0.000285	0.120837	
0.00029	0.120612	
0.000295	0.120464	
0.0003	0.120373	
0.000305	0.120323	
0.00031	0.120257	
0.000315	0.120086	
0.00032	0.119808	
0.000325	0.119473	
0.00033	0.119114	
0.000335	0.118521	
0.00034	0.117563	
0.000345	0.116647	
0.00035	0.11604	
0.000355	0.115618	
0.00036	0.11529	
0.000365	0.11504	
0.00037	0.114853	
0.000375	0.114764	
0.00038	0.114744	
0.000385	0.114675	
0.00039	0.11453	
0.000395	0.114388	
0.0004	0.114304	
0.000405	0.114213	
0.00041	0.114123	
0.000415	0.114133	
0.00042	0.114207	
0.000425	0.114274	
0.00043	0.114331	
0.000435	0.114334	
0.00044	0.114251	
0.000445	0.114117	
0.00045	0.113955	
0.000455	0.113782	
0.00046	0.113658	
0.000465	0.113667	
0.00047	0.113811	
0.000475	0.114037	
0.00048	0.114307	
0.000485	0.114592	
0.00049	0.114827	
0.000495	0.114969	
0.0005	0.115092	
0.000505	0.115244	
0.00051	0.115407	
0.000515	0.11557	
0.00052	0.115726	
0.000525	0.115869	
0.00053	0.115997	
0.000535	0.116109	
0.00054	0.116253	
0.000545	0.116459	
0.00055	0.116648	
0.000555	0.116769	
0.00056	0.11684	
0.000565	0.116923	
0.00057	0.117104	
0.000575	0.117388	
0.00058	0.117728	
0.000585	0.119324	
0.00059	0.12462	
0.000595	0.134387	
0.0006	0.1474	
0.000605	0.162175	
0.00061	0.177462	
0.000615	0.192362	
0.00062	0.206303	
0.000625	0.218952	
0.00063	0.230104	
0.000635	0.23974	
0.00064	0.248017	
0.000645	0.255101	
0.00065	0.261159	
0.000655	0.266301	
0.00066	0.270358	
0.000665	0.273033	
0.00067	0.27448	
0.000675	0.275143	
0.00068	0.275354	
0.000685	0.275304	
0.00069	0.275037	
0.000695	0.274639	
0.0007	0.274174	
0.000705	0.273639	
0.00071	0.273274	
0.000715	0.273322	
0.00072	0.273784	
0.000725	0.274639	
0.00073	0.275809	
0.000735	0.27713	
0.00074	0.278488	
0.000745	0.279807	
0.00075	0.281133	
0.000755	0.282495	
0.00076	0.28377	
0.000765	0.284926	
0.00077	0.286093	
0.000775	0.287353	
0.00078	0.288616	
0.000785	0.289821	
0.00079	0.291073	
0.000795	0.292439	
0.0008	0.293912	
0.000805	0.295432	
0.00081	0.296912	
0.000815	0.2982	
0.00082	0.299206	
0.000825	0.300073	
0.00083	0.300903	
0.000835	0.301716	
0.00084	0.302575	
0.000845	0.303472	
0.00085	0.30435	
0.000855	0.305222	
0.00086	0.306145	
0.000865	0.307152	
0.00087	0.308262	
0.000875	0.309435	
0.00088	0.310594	
0.000885	0.311641	
0.00089	0.312565	
0.000895	0.31346	
0.0009	0.31434	
0.000905	0.315169	
0.00091	0.315878	
0.000915	0.316473	
0.00092	0.317109	
0.000925	0.317883	
0.00093	0.31876	
0.000935	0.319663	
0.00094	0.320541	
0.000945	0.32136	
0.00095	0.32215	
0.000955	0.322977	
0.00096	0.323839	
0.000965	0.324681	
0.00097	0.325472	
0.000975	0.326238	
0.00098	0.326952	
0.000985	0.327503	
0.00099	0.327968	
0.000995	0.328496	
0.001	0.329042	
0.001005	0.329478	
0.00101	0.329821	
0.001015	0.330086	
0.00102	0.330241	
0.001025	0.330409	
0.00103	0.330675	
0.001035	0.330944	
0.00104	0.331108	
0.001045	0.331194	
0.00105	0.331321	
0.001055	0.331467	
0.00106	0.331573	
0.001065	0.331647	
0.00107	0.331649	
0.001075	0.331555	
0.00108	0.331356	
0.001085	0.331001	
0.00109	0.330561	
0.001095	0.330179	
0.0011	0.329855	
0.001105	0.329489	
0.00111	0.329065	
0.001115	0.328623	
0.00112	0.32819	
0.001125	0.327736	
0.00113	0.327194	
0.001135	0.326573	
0.00114	0.325928	
0.001145	0.325299	
0.00115	0.324709	
0.001155	0.324126	
0.00116	0.32348	
0.001165	0.322776	
0.00117	0.322018	
0.001175	0.321214	
0.00118	0.320417	
0.001185	0.319663	
0.00119	0.318973	
0.001195	0.318309	
0.0012	0.317648	
0.001205	0.316971	
0.00121	0.316221	
0.001215	0.315411	
0.00122	0.3146	
0.001225	0.313826	
0.00123	0.313066	
0.001235	0.312303	
0.00124	0.311575	
0.001245	0.310856	
0.00125	0.31013	
0.001255	0.309434	
0.00126	0.308743	
0.001265	0.307992	
0.00127	0.307238	
0.001275	0.306565	
0.00128	0.305882	
0.001285	0.305082	
0.00129	0.304195	
0.001295	0.303294	
0.0013	0.302424	
0.001305	0.30157	
0.00131	0.300624	
0.001315	0.299566	
0.00132	0.298533	
0.001325	0.297612	
0.00133	0.296761	
0.001335	0.295902	
0.00134	0.294983	
0.001345	0.293972	
0.00135	0.292901	
0.001355	0.291842	
0.00136	0.290793	
0.001365	0.289704	
0.00137	0.288594	
0.001375	0.28757	
0.00138	0.286698	
0.001385	0.285921	
0.00139	0.285147	
0.001395	0.284317	
0.0014	0.283443	
0.001405	0.282532	
0.00141	0.281498	
0.001415	0.280289	
0.00142	0.278974	
0.001425	0.277652	
0.00143	0.27634	
0.001435	0.275049	
0.00144	0.273833	
0.001445	0.272677	
0.00145	0.271566	
0.001455	0.270492	
0.00146	0.269396	
0.001465	0.268291	
0.00147	0.267185	
0.001475	0.266035	
0.00148	0.264863	
0.001485	0.263684	
0.00149	0.262462	
0.001495	0.261221	
0.0015	0.260026	
0.001505	0.258919	
0.00151	0.257874	
0.001515	0.256825	
0.00152	0.255774	
0.001525	0.254773	
0.00153	0.253756	
0.001535	0.252635	
0.00154	0.25145	
0.001545	0.250232	
0.00155	0.248907	
0.001555	0.247479	
0.00156	0.246145	
0.001565	0.245032	
0.00157	0.24407	
0.001575	0.243158	
0.00158	0.242274	
0.001585	0.241403	
0.00159	0.240534	
0.001595	0.239707	
0.0016	0.238948	
0.001605	0.238222	
0.00161	0.237456	
0.001615	0.236653	
0.00162	0.235769	
0.001625	0.234777	
0.00163	0.23381	
0.001635	0.232904	
0.00164	0.232033	
0.001645	0.231275	
0.00165	0.23058	
0.001655	0.229816	
0.00166	0.229043	
0.001665	0.2283	
0.00167	0.227518	
0.001675	0.226699	
0.00168	0.225894	
0.001685	0.225089	
0.00169	0.224228	
0.001695	0.223322	
0.0017	0.22243	
0.001705	0.221589	
0.00171	0.220821	
0.001715	0.220091	
0.00172	0.219325	
0.001725	0.218523	
0.00173	0.217737	
0.001735	0.21695	
0.00174	0.216152	
0.001745	0.215385	
0.00175	0.214675	
0.001755	0.214035	
0.00176	0.213425	
0.001765	0.212815	
0.00177	0.212235	
0.001775	0.211654	
0.00178	0.211005	
0.001785	0.210294	
0.00179	0.209576	
0.001795	0.208888	
0.0018	0.208251	
0.001805	0.207679	
0.00181	0.207128	
0.001815	0.206523	
0.00182	0.205863	
0.001825	0.205198	
0.00183	0.204514	
0.001835	0.203754	
0.00184	0.202933	
0.001845	0.202158	
0.00185	0.201497	
0.001855	0.200896	
0.00186	0.200314	
0.001865	0.199773	
0.00187	0.199237	
0.001875	0.198682	
0.00188	0.198141	
0.001885	0.197539	
0.00189	0.196831	
0.001895	0.196086	
0.0019	0.195352	
0.001905	0.19466	
0.00191	0.193982	
0.001915	0.193296	
0.00192	0.192638	
0.001925	0.192029	
0.00193	0.191434	
0.001935	0.19083	
0.00194	0.190294	
0.001945	0.189877	
0.00195	0.189558	
0.001955	0.189319	
0.00196	0.189096	
0.001965	0.188799	
0.00197	0.18842	
0.001975	0.188005	
0.00198	0.187585	
0.001985	0.187183	
0.00199	0.186811	
0.001995	0.186524	
0.002	0.186354	
0.002005	0.186222	
0.00201	0.186074	
0.002015	0.185874	
0.00202	0.185602	
0.002025	0.185296	
0.00203	0.184934	
0.002035	0.184552	
0.00204	0.184223	
0.002045	0.183896	
0.00205	0.18354	
0.002055	0.18318	
0.00206	0.182787	
0.002065	0.182345	
0.00207	0.181889	
0.002075	0.181448	
0.00208	0.181036	
0.002085	0.180663	
0.00209	0.180381	
0.002095	0.180219	
0.0021	0.180098	
0.002105	0.179961	
0.00211	0.179868	
0.002115	0.179855	
0.00212	0.179897	
0.002125	0.179924	
0.00213	0.179846	
0.002135	0.179702	
0.00214	0.179616	
0.002145	0.179573	
0.00215	0.179465	
0.002155	0.17932	
0.00216	0.179251	
0.002165	0.179284	
0.00217	0.179382	
0.002175	0.179471	
0.00218	0.179503	
0.002185	0.179543	
0.00219	0.179586	
0.002195	0.179534	
0.0022	0.179422	
0.002205	0.179323	
0.00221	0.17919	
0.002215	0.178993	
0.00222	0.178764	
0.002225	0.178524	
0.00223	0.178288	
0.002235	0.178066	
0.00224	0.177864	
0.002245	0.177732	
0.00225	0.1777	
0.002255	0.177687	
0.00226	0.177641	
0.002265	0.177575	
0.00227	0.177499	
0.002275	0.177467	
0.00228	0.177514	
0.002285	0.17761	
0.00229	0.177734	
0.002295	0.17787	
0.0023	0.178057	
0.002305	0.178314	
0.00231	0.178606	
0.002315	0.178908	
0.00232	0.179201	
0.002325	0.179475	
0.00233	0.179723	
0.002335	0.179942	
0.00234	0.180133	
0.002345	0.180295	
0.00235	0.18043	
0.002355	0.18059	
0.00236	0.180852	
0.002365	0.18117	
0.00237	0.181415	
0.002375	0.1816	
0.00238	0.181832	
0.002385	0.182131	
0.00239	0.18246	
0.002395	0.182793	
0.0024	0.183067	
0.002405	0.183335	
0.00241	0.183634	
0.002415	0.181896	
0.00242	0.175237	
0.002425	0.164222	
0.00243	0.151283	
0.002435	0.138021	
0.00244	0.125458	
0.002445	0.114236	
0.00245	0.104666	
0.002455	0.0968753	
0.00246	0.0909121	
0.002465	0.0866734	
0.00247	0.0840098	
0.002475	0.082796	
0.00248	0.0828331	
0.002485	0.0838835	
0.00249	0.0857423	
0.002495	0.0882365	
0.0025	0.0912218	
0.002505	0.0945797	
0.00251	0.0982148	
0.002515	0.102003	
0.00252	0.105809	
0.002525	0.109588	
0.00253	0.113361	
0.002535	0.117142	
0.00254	0.120892	
0.002545	0.12454	
0.00255	0.128042	
0.002555	0.131378	
0.00256	0.134589	
0.002565	0.137755	
0.00257	0.140886	
0.002575	0.143892	
0.00258	0.146674	
0.002585	0.149225	
0.00259	0.151596	
0.002595	0.153786	
0.0026	0.155799	
0.002605	0.157791	
0.00261	0.159865	
0.002615	0.161894	
0.00262	0.163799	
0.002625	0.165626	
0.00263	0.167411	
0.002635	0.169131	
0.00264	0.170679	
0.002645	0.172041	
0.00265	0.173311	
0.002655	0.174507	
0.00266	0.175598	
0.002665	0.176569	
0.00267	0.177462	
0.002675	0.178308	
0.00268	0.179036	
0.002685	0.179652	
0.00269	0.180261	
0.002695	0.18093	
0.0027	0.181655	
0.002705	0.182383	
0.00271	0.183125	
0.002715	0.18389	
0.00272	0.184634	
0.002725	0.18528	
0.00273	0.185737	
0.002735	0.186048	
0.00274	0.186342	
0.002745	0.186659	
0.00275	0.186976	
0.002755	0.187278	
0.00276	0.187556	
0.002765	0.187805	
0.00277	0.187976	
0.002775	0.188039	
0.00278	0.188076	
0.002785	0.188142	
0.00279	0.188223	
0.002795	0.188263	
0.0028	0.188179	
0.002805	0.18797	
0.00281	0.187688	
0.002815	0.187371	
0.00282	0.187094	
0.002825	0.186904	
0.00283	0.186733	
0.002835	0.186487	
0.00284	0.18606	
0.002845	0.18544	
0.00285	0.184817	
0.002855	0.184316	
0.00286	0.183919	
0.002865	0.18361	
0.00287	0.183326	
0.002875	0.182977	
0.00288	0.182506	
0.002885	0.181929	
0.00289	0.181358	
0.002895	0.180865	
0.0029	0.180399	
0.002905	0.179926	
0.00291	0.179422	
0.002915	0.178875	
0.00292	0.178373	
0.002925	0.177924	
0.00293	0.177436	
0.002935	0.176898	
0.00294	0.176352	
0.002945	0.17578	
0.00295	0.175122	
0.002955	0.174392	
0.00296	0.173648	
0.002965	0.17293	
0.00297	0.172216	
0.002975	0.171443	
0.00298	0.17062	
0.002985	0.169756	
0.00299	0.168858	
0.002995	0.16798	
0.003	0.167109	
0.003005	0.166237	
0.00301	0.165405	
0.003015	0.164638	
0.00302	0.163952	
0.003025	0.163303	
0.00303	0.162614	
0.003035	0.161884	
0.00304	0.161114	
0.003045	0.160306	
0.00305	0.159512	
0.003055	0.158717	
0.00306	0.157911	
0.003065	0.157136	
0.00307	0.156371	
0.003075	0.155553	
0.00308	0.154692	
0.003085	0.15389	
0.00309	0.153213	
0.003095	0.152603	
0.0031	0.151971	
0.003105	0.151259	
0.00311	0.150527	
0.003115	0.149818	
0.00312	0.14911	
0.003125	0.148435	
0.00313	0.14772	
0.003135	0.146916	
0.00314	0.146093	
0.003145	0.145247	
0.00315	0.144332	
0.003155	0.143367	
0.00316	0.142415	
0.003165	0.141516	
0.00317	0.140694	
0.003175	0.139916	
0.00318	0.139154	
0.003185	0.138488	
0.00319	0.137915	
0.003195	0.137337	
0.0032	0.136687	
0.003205	0.135926	
0.00321	0.135079	
0.003215	0.134217	
0.00322	0.133385	
0.003225	0.132612	
0.00323	0.131914	
0.003235	0.1313	
0.00324	0.130769	
0.003245	0.130318	
0.00325	0.129894	
0.003255	0.129461	
0.00326	0.129041	
0.003265	0.128555	
0.00327	0.127954	
0.003275	0.127353	
0.00328	0.126827	
0.003285	0.126376	
0.00329	0.125996	
0.003295	0.125633	
0.0033	0.125203	
0.003305	0.124702	
0.00331	0.124178	
0.003315	0.123663	
0.00332	0.123227	
0.003325	0.12291	
0.00333	0.122639	
0.003335	0.122317	
0.00334	0.121881	
0.003345	0.121343	
0.00335	0.120763	
0.003355	0.120183	
0.00336	0.11963	
0.003365	0.119169	
0.00337	0.118838	
0.003375	0.11856	
0.00338	0.118284	
0.003385	0.117974	
0.00339	0.117608	
0.003395	0.117224	
0.0034	0.116845	
0.003405	0.116487	
0.00341	0.116114	
0.003415	0.115652	
0.00342	0.115106	
0.003425	0.114579	
0.00343	0.114088	
0.003435	0.11355	
0.00344	0.112863	
0.003445	0.112015	
0.00345	0.111197	
0.003455	0.110485	
0.00346	0.109828	
0.003465	0.109239	
0.00347	0.108676	
0.003475	0.108107	
0.00348	0.107563	
0.003485	0.107061	
0.00349	0.106562	
0.003495	0.105994	
0.0035	0.105407	
0.003505	0.104883	
0.00351	0.104378	
0.003515	0.103862	
0.00352	0.103363	
0.003525	0.102898	
0.00353	0.102479	
0.003535	0.102109	
0.00354	0.101789	
0.003545	0.101469	
0.00355	0.10107	
0.003555	0.10059	
0.00356	0.10008	
0.003565	0.0995726	
0.00357	0.0989496	
0.003575	0.098137	
0.00358	0.0973327	
0.003585	0.0966196	
0.00359	0.0960004	
0.003595	0.0955673	
0.0036	0.0953251	
0.003605	0.0952201	
0.00361	0.0952106	
0.003615	0.0952169	
0.00362	0.0951384	
0.003625	0.0949125	
0.00363	0.0945526	
0.003635	0.0941689	
0.00364	0.0937876	
0.003645	0.0933785	
0.00365	0.0930179	
0.003655	0.0927063	
0.00366	0.0923942	
0.003665	0.0920966	
0.00367	0.0917751	
0.003675	0.0914055	
0.00368	0.0909741	
0.003685	0.0904748	
0.00369	0.0900019	
0.003695	0.0896164	
0.0037	0.0893066	
0.003705	0.0890615	
0.00371	0.0888706	
0.003715	0.0887245	
0.00372	0.0885673	
0.003725	0.0883151	
0.00373	0.0879647	
0.003735	0.0876136	
0.00374	0.0873738	
0.003745	0.0872187	
0.00375	0.0870792	
0.003755	0.0869566	
0.00376	0.0868035	
0.003765	0.0865899	
0.00377	0.0863465	
0.003775	0.086095	
0.00378	0.0858501	
0.003785	0.085621	
0.00379	0.0854133	
0.003795	0.0852295	
0.0038	0.0850701	
0.003805	0.0849343	
0.00381	0.0848206	
0.003815	0.0847268	
0.00382	0.0846505	
0.003825	0.0845894	
0.00383	0.0845412	
0.003835	0.0845038	
0.00384	0.0844277	
0.003845	0.0842347	
0.00385	0.0839262	
0.003855	0.083556	
0.00386	0.0832104	
0.003865	0.0829447	
0.00387	0.0826968	
0.003875	0.0824248	
0.00388	0.0821973	
0.003885	0.082105	
0.00389	0.0821062	
0.003895	0.082074	
0.0039	0.0819736	
0.003905	0.0818331	
0.00391	0.0816728	
0.003915	0.0815545	
0.00392	0.0815646	
0.003925	0.0817064	
0.00393	0.0818808	
0.003935	0.0819734	
0.00394	0.0819602	
0.003945	0.0818777	
0.00395	0.0818011	
0.003955	0.0817795	
0.00396	0.0817476	
0.003965	0.0817105	
0.00397	0.0817667	
0.003975	0.0819294	
0.00398	0.0821546	
0.003985	0.0824578	
0.00399	0.0828933	
0.003995	0.0834428	
0.004	0.0840892	
0.004005	0.0848638	
0.00401	0.0857815	
0.004015	0.0868452	
0.00402	0.0880023	
0.004025	0.0892139	
0.00403	0.0904991	
0.004035	0.0918197	
0.00404	0.0931961	
0.004045	0.0947345	
0.00405	0.0964019	
0.004055	0.098123	
0.00406	0.0998933	
0.004065	0.10166	
0.00407	0.103388	
0.004075	0.105104	
0.00408	0.106778	
0.004085	0.108393	
0.00409	0.109988	
0.004095	0.111589	
0.0041	0.113214	
0.004105	0.114825	
0.00411	0.11635	
0.004115	0.117795	
0.00412	0.119213	
0.004125	0.120642	
0.00413	0.122105	
0.004135	0.123521	
0.00414	0.124792	
0.004145	0.126003	
0.00415	0.127211	
0.004155	0.128361	
0.00416	0.129512	
0.004165	0.130753	
0.00417	0.132042	
0.004175	0.133302	
0.00418	0.13453	
0.004185	0.135774	
0.00419	0.137065	
0.004195	0.138422	
0.0042	0.139804	
0.004205	0.141138	
0.00421	0.142378	
0.004215	0.143544	
0.00422	0.144701	
0.004225	0.145845	
0.00423	0.146927	
0.004235	0.147964	
0.00424	0.149017	
0.004245	0.150127	
0.00425	0.151268	
0.004255	0.152329	
0.00426	0.153287	
0.004265	0.154274	
0.00427	0.155329	
0.004275	0.156378	
0.00428	0.157422	
0.004285	0.158508	
0.00429	0.159665	
0.004295	0.160863	
0.0043	0.162029	
0.004305	0.163169	
0.00431	0.164283	
0.004315	0.165329	
0.00432	0.166327	
0.004325	0.167295	
0.00433	0.168244	
0.004335	0.169183	
0.00434	0.170071	
0.004345	0.170932	
0.00435	0.171781	
0.004355	0.172582	
0.00436	0.173314	
0.004365	0.173965	
0.00437	0.174533	
0.004375	0.175066	
0.00438	0.175646	
0.004385	0.176277	
0.00439	0.176912	
0.004395	0.177567	
0.0044	0.178252	
0.004405	0.178876	
0.00441	0.179432	
0.004415	0.18001	
0.00442	0.180624	
0.004425	0.181232	
0.00443	0.181855	
0.004435	0.182506	
0.00444	0.183145	
0.004445	0.183745	
0.00445	0.184292	
0.004455	0.184825	
0.00446	0.185324	
0.004465	0.185776	
0.00447	0.186272	
0.004475	0.186821	
0.00448	0.187425	
0.004485	0.188086	
0.00449	0.188752	
0.004495	0.189391	
0.0045	0.189981	
0.004505	0.190511	
0.00451	0.190977	
0.004515	0.191378	
0.00452	0.191717	
0.004525	0.192	
0.00453	0.192232	
0.004535	0.19242	
0.00454	0.19257	
0.004545	0.192734	
0.00455	0.192949	
0.004555	0.193139	
0.00456	0.193256	
0.004565	0.193319	
0.00457	0.193344	
0.004575	0.193343	
0.00458	0.193371	
0.004585	0.193514	
0.00459	0.193724	
0.004595	0.193922	
0.0046	0.194102	
0.004605	0.194215	
0.00461	0.19423	
0.004615	0.19418	
0.00462	0.194137	
0.004625	0.194149	
0.00463	0.194148	
0.004635	0.194091	
0.00464	0.193953	
0.004645	0.19372	
0.00465	0.193436	
0.004655	0.193131	
0.00466	0.192875	
0.004665	0.19271	
0.00467	0.192613	
0.004675	0.192566	
0.00468	0.192507	
0.004685	0.192346	
0.00469	0.19208	
0.004695	0.191756	
0.0047	0.191361	
0.004705	0.190892	
0.00471	0.190396	
0.004715	0.189905	
0.00472	0.189488	
0.004725	0.18914	
0.00473	0.188759	
0.004735	0.188373	
0.00474	0.188051	
0.004745	0.187739	
0.00475	0.187399	
0.004755	0.187059	
0.00476	0.186733	
0.004765	0.186385	
0.00477	0.185944	
0.004775	0.185415	
0.00478	0.184853	
0.004785	0.184296	
0.00479	0.183768	
0.004795	0.183284	
0.0048	0.182853	
0.004805	0.182476	
0.00481	0.182154	
0.004815	0.181834	
0.00482	0.181485	
0.004825	0.181179	
0.00483	0.180917	
0.004835	0.180601	
0.00484	0.180217	
0.004845	0.179759	
0.00485	0.179226	
0.004855	0.178668	
0.00486	0.178121	
0.004865	0.177607	
0.00487	0.177091	
0.004875	0.176551	
0.00488	0.175973	
0.004885	0.17535	
0.00489	0.174774	
0.004895	0.174304	
0.0049	0.173878	
0.004905	0.173407	
0.00491	0.172881	
0.004915	0.172343	
0.00492	0.171822	
0.004925	0.171291	
0.00493	0.170682	
0.004935	0.169956	
0.00494	0.16914	
0.004945	0.168492	
0.00495	0.16813	
0.004955	0.167782	
0.00496	0.167365	
0.004965	0.16697	
0.00497	0.166561	
0.004975	0.166066	
0.00498	0.165443	
0.004985	0.164718	
0.00499	0.164008	
0.004995	0.16334	
0.005	0.162685	
0.005005	0.162069	
0.00501	0.161508	
0.005015	0.161057	
0.00502	0.1607	
0.005025	0.160327	
0.00503	0.159914	
0.005035	0.159493	
0.00504	0.159088	
0.005045	0.158711	
0.00505	0.158372	
0.005055	0.158026	
0.00506	0.157596	
0.005065	0.157084	
0.00507	0.156495	
0.005075	0.155835	
0.00508	0.155159	
0.005085	0.154505	
0.00509	0.153897	
0.005095	0.153347	
0.0051	0.152862	
0.005105	0.152395	
0.00511	0.151866	
0.005115	0.151275	
0.00512	0.150671	
0.005125	0.150038	
0.00513	0.14937	
0.005135	0.14871	
0.00514	0.148086	
0.005145	0.147515	
0.00515	0.147007	
0.005155	0.146564	
0.00516	0.146185	
0.005165	0.145866	
0.00517	0.145601	
0.005175	0.145386	
0.00518	0.145164	
0.005185	0.144855	
0.00519	0.144502	
0.005195	0.144233	
0.0052	0.144031	
0.005205	0.143787	
0.00521	0.143481	
0.005215	0.143148	
0.00522	0.142813	
0.005225	0.142444	
0.00523	0.142024	
0.005235	0.141637	
0.00524	0.141338	
0.005245	0.14111	
0.00525	0.140941	
0.005255	0.140818	
0.00526	0.140684	
0.005265	0.140454	
0.00527	0.140172	
0.005275	0.139916	
0.00528	0.139641	
0.005285	0.139368	
0.00529	0.139156	
0.005295	0.138947	
0.0053	0.138702	
0.005305	0.138492	
0.00531	0.138364	
0.005315	0.138247	
0.00532	0.138049	
0.005325	0.137758	
0.00533	0.137421	
0.005335	0.137021	
0.00534	0.136551	
0.005345	0.136105	
0.00535	0.135791	
0.005355	0.135578	
0.00536	0.135395	
0.005365	0.135288	
0.00537	0.135236	
0.005375	0.135127	
0.00538	0.134987	
0.005385	0.134831	
0.00539	0.134579	
0.005395	0.134322	
0.0054	0.134217	
0.005405	0.134217	
0.00541	0.134191	
0.005415	0.134101	
0.00542	0.133927	
