Time - Plot 0	Amplitude - Plot 0	
0	-0.0266691	
5E-6	-0.0264704	
1E-5	-0.0263709	
1.5E-5	-0.0263415	
2E-5	-0.0262646	
2.5E-5	-0.0261125	
3E-5	-0.025918	
3.5E-5	-0.0257047	
4E-5	-0.0254416	
4.5E-5	-0.0251106	
5E-5	-0.0247505	
5.5E-5	-0.0243406	
6E-5	-0.0238699	
6.5E-5	-0.0233336	
7E-5	-0.0226845	
7.5E-5	-0.0218967	
8E-5	-0.0211021	
8.5E-5	-0.0203882	
9E-5	-0.0193335	
9.5E-5	-0.017486	
0.0001	-0.0149179	
0.000105	-0.0119011	
0.00011	-0.00863608	
0.000115	-0.00526673	
0.00012	-0.0018929	
0.000125	0.00141938	
0.00013	0.00462949	
0.000135	0.00771548	
0.00014	0.0106687	
0.000145	0.0134899	
0.00015	0.0161855	
0.000155	0.018766	
0.00016	0.0212436	
0.000165	0.0235837	
0.00017	0.0257699	
0.000175	0.0278464	
0.00018	0.0298475	
0.000185	0.0317516	
0.00019	0.0335018	
0.000195	0.0351627	
0.0002	0.0368289	
0.000205	0.0384673	
0.00021	0.0400574	
0.000215	0.0416355	
0.00022	0.0432261	
0.000225	0.0447972	
0.00023	0.0462813	
0.000235	0.0476852	
0.00024	0.049065	
0.000245	0.0504587	
0.00025	0.0518432	
0.000255	0.0532036	
0.00026	0.0545789	
0.000265	0.0559465	
0.00027	0.0572444	
0.000275	0.0584348	
0.00028	0.0594982	
0.000285	0.060475	
0.00029	0.0614436	
0.000295	0.0624085	
0.0003	0.0633728	
0.000305	0.0643863	
0.00031	0.0654317	
0.000315	0.0664488	
0.00032	0.0673991	
0.000325	0.0682604	
0.00033	0.0690223	
0.000335	0.0697301	
0.00034	0.0704639	
0.000345	0.0712276	
0.00035	0.0719749	
0.000355	0.0726761	
0.00036	0.0733137	
0.000365	0.0738793	
0.00037	0.074418	
0.000375	0.0749612	
0.00038	0.0754816	
0.000385	0.07601	
0.00039	0.076566	
0.000395	0.0770666	
0.0004	0.0774593	
0.000405	0.0778099	
0.00041	0.0781637	
0.000415	0.0785028	
0.00042	0.0788162	
0.000425	0.0790979	
0.00043	0.0793452	
0.000435	0.0795584	
0.00044	0.0797863	
0.000445	0.0800608	
0.00045	0.0803054	
0.000455	0.0804713	
0.00046	0.0805774	
0.000465	0.0806391	
0.00047	0.0806685	
0.000475	0.0806753	
0.00048	0.0806669	
0.000485	0.0806963	
0.00049	0.0807494	
0.000495	0.0807204	
0.0005	0.0805911	
0.000505	0.0803543	
0.00051	0.0800103	
0.000515	0.0796595	
0.00052	0.0793681	
0.000525	0.0790348	
0.00053	0.0785945	
0.000535	0.078152	
0.00054	0.0777765	
0.000545	0.077463	
0.00055	0.0772051	
0.000555	0.0769962	
0.00056	0.0767818	
0.000565	0.076479	
0.00057	0.0760845	
0.000575	0.0756484	
0.00058	0.0752054	
0.000585	0.0747788	
0.00059	0.0743357	
0.000595	0.0738076	
0.0006	0.0732008	
0.000605	0.0725709	
0.00061	0.0719556	
0.000615	0.0713314	
0.00062	0.0706359	
0.000625	0.0699261	
0.00063	0.0692882	
0.000635	0.0686326	
0.00064	0.0679014	
0.000645	0.0672025	
0.00065	0.0665578	
0.000655	0.0658844	
0.00066	0.0651763	
0.000665	0.0644789	
0.00067	0.0637739	
0.000675	0.0630023	
0.00068	0.0621756	
0.000685	0.0613518	
0.00069	0.0605688	
0.000695	0.0598022	
0.0007	0.0589876	
0.000705	0.0580848	
0.00071	0.0570716	
0.000715	0.0559858	
0.00072	0.0549036	
0.000725	0.053875	
0.00073	0.0529303	
0.000735	0.0520381	
0.00074	0.0511276	
0.000745	0.0502007	
0.00075	0.0493067	
0.000755	0.0484291	
0.00076	0.0475089	
0.000765	0.0465565	
0.00077	0.0455804	
0.000775	0.0445873	
0.00078	0.04363	
0.000785	0.0426465	
0.00079	0.0415971	
0.000795	0.0406015	
0.0008	0.0396885	
0.000805	0.038778	
0.00081	0.0378646	
0.000815	0.0369927	
0.00082	0.0361892	
0.000825	0.0354214	
0.00083	0.0346183	
0.000835	0.0337824	
0.00084	0.0329169	
0.000845	0.0320252	
0.00085	0.0311586	
0.000855	0.0303018	
0.00086	0.0294445	
0.000865	0.0285799	
0.00087	0.0276563	
0.000875	0.02669	
0.00088	0.0257412	
0.000885	0.0248488	
0.00089	0.0239883	
0.000895	0.0230944	
0.0009	0.0222209	
0.000905	0.0214495	
0.00091	0.0207345	
0.000915	0.0199954	
0.00092	0.0191804	
0.000925	0.0183062	
0.00093	0.0174344	
0.000935	0.0166054	
0.00094	0.0157963	
0.000945	0.0149435	
0.00095	0.0140547	
0.000955	0.0131842	
0.00096	0.0123194	
0.000965	0.0114518	
0.00097	0.0105757	
0.000975	0.0096405	
0.00098	0.0087105	
0.000985	0.00782793	
0.00099	0.00692331	
0.000995	0.0059994	
0.001	0.00510646	
0.001005	0.00427619	
0.00101	0.0035265	
0.001015	0.0028654	
0.00102	0.00224645	
0.001025	0.00158949	
0.00103	0.000891006	
0.001035	0.000198182	
0.00104	-0.000458142	
0.001045	-0.00105936	
0.00105	-0.0015958	
0.001055	-0.0021117	
0.00106	-0.00263719	
0.001065	-0.00314415	
0.00107	-0.00366244	
0.001075	-0.00421123	
0.00108	-0.00475418	
0.001085	-0.00526759	
0.00109	-0.00578477	
0.001095	-0.00632752	
0.0011	-0.00686146	
0.001105	-0.00741186	
0.00111	-0.00799463	
0.001115	-0.0086187	
0.00112	-0.00928803	
0.001125	-0.00990801	
0.00113	-0.0104661	
0.001135	-0.0110521	
0.00114	-0.0116763	
0.001145	-0.0122962	
0.00115	-0.0128839	
0.001155	-0.0134225	
0.00116	-0.013951	
0.001165	-0.0144952	
0.00117	-0.015024	
0.001175	-0.0155653	
0.00118	-0.0161367	
0.001185	-0.0166534	
0.00119	-0.017062	
0.001195	-0.0174276	
0.0012	-0.0177951	
0.001205	-0.0181465	
0.00121	-0.0184705	
0.001215	-0.0187613	
0.00122	-0.0190164	
0.001225	-0.0192358	
0.00123	-0.0194214	
0.001235	-0.0196234	
0.00124	-0.0199218	
0.001245	-0.0203171	
0.00125	-0.0207101	
0.001255	-0.0210355	
0.00126	-0.0213484	
0.001265	-0.0216859	
0.00127	-0.0220235	
0.001275	-0.0223453	
0.00128	-0.0226415	
0.001285	-0.0229067	
0.00129	-0.023139	
0.001295	-0.0233386	
0.0013	-0.0235072	
0.001305	-0.0236473	
0.00131	-0.0237621	
0.001315	-0.0239023	
0.00132	-0.0241477	
0.001325	-0.0244508	
0.00133	-0.0247301	
0.001335	-0.025028	
0.00134	-0.0253717	
0.001345	-0.0257292	
0.00135	-0.0260791	
0.001355	-0.0263597	
0.00136	-0.0264863	
0.001365	-0.026458	
0.00137	-0.0263762	
0.001375	-0.0263107	
0.00138	-0.0262115	
0.001385	-0.0260472	
0.00139	-0.0258477	
0.001395	-0.0256345	
0.0014	-0.0254223	
0.001405	-0.0252208	
0.00141	-0.025036	
0.001415	-0.0248232	
0.00142	-0.0245547	
0.001425	-0.024262	
0.00143	-0.0239197	
0.001435	-0.023561	
0.00144	-0.0232558	
0.001445	-0.0229529	
0.00145	-0.0226183	
0.001455	-0.0222785	
0.00146	-0.021904	
0.001465	-0.0214767	
0.00147	-0.0210823	
0.001475	-0.0207758	
0.00148	-0.0204943	
0.001485	-0.0201474	
0.00149	-0.0196788	
0.001495	-0.0190095	
0.0015	-0.0180494	
0.001505	-0.0166577	
0.00151	-0.0147146	
0.001515	-0.0123096	
0.00152	-0.00957125	
0.001525	-0.00660001	
0.00153	-0.00352068	
0.001535	-0.000420653	
0.00154	0.00264147	
0.001545	0.00567637	
0.00155	0.00869239	
0.001555	0.0116008	
0.00156	0.0143483	
0.001565	0.0169548	
0.00157	0.0193926	
0.001575	0.0216514	
0.00158	0.0238279	
0.001585	0.0259899	
0.00159	0.0280875	
0.001595	0.0300435	
0.0016	0.0318611	
0.001605	0.0336442	
0.00161	0.0354627	
0.001615	0.0372661	
0.00162	0.0390218	
0.001625	0.0407581	
0.00163	0.0424945	
0.001635	0.0442439	
0.00164	0.0459668	
0.001645	0.0475906	
0.00165	0.0490723	
0.001655	0.0503902	
0.00166	0.0515853	
0.001665	0.052738	
0.00167	0.0538558	
0.001675	0.0549452	
0.00168	0.0560595	
0.001685	0.0571849	
0.00169	0.058312	
0.001695	0.0594821	
0.0017	0.0606725	
0.001705	0.0618202	
0.00171	0.0629329	
0.001715	0.064065	
0.00172	0.0652038	
0.001725	0.0662933	
0.00173	0.0672986	
0.001735	0.068201	
0.00174	0.0690403	
0.001745	0.0698934	
0.00175	0.0707627	
0.001755	0.0716017	
0.00176	0.072381	
0.001765	0.073084	
0.00177	0.0737036	
0.001775	0.0742863	
0.00178	0.0749122	
0.001785	0.0755845	
0.00179	0.0762557	
0.001795	0.0768944	
0.0018	0.0774813	
0.001805	0.0780065	
0.00181	0.0784661	
0.001815	0.0788607	
0.00182	0.0791937	
0.001825	0.0794705	
0.00183	0.079697	
0.001835	0.0799273	
0.00184	0.0801966	
0.001845	0.080479	
0.00185	0.0807566	
0.001855	0.0810179	
0.00186	0.0812562	
0.001865	0.0814679	
0.00187	0.0816998	
0.001875	0.0819338	
0.00188	0.0821108	
0.001885	0.0822892	
0.00189	0.0824603	
0.001895	0.0825232	
0.0019	0.0824644	
0.001905	0.082328	
0.00191	0.082147	
0.001915	0.0819452	
0.00192	0.0817391	
0.001925	0.08154	
0.00193	0.0813073	
0.001935	0.0809685	
0.00194	0.0805282	
0.001945	0.0800893	
0.00195	0.0797196	
0.001955	0.0793655	
0.00196	0.078991	
0.001965	0.0786206	
0.00197	0.0782705	
0.001975	0.0779504	
0.00198	0.0776175	
0.001985	0.0771971	
0.00199	0.0766911	
0.001995	0.0761052	
0.002	0.0754468	
0.002005	0.0747717	
0.00201	0.0741175	
0.002015	0.0735081	
0.00202	0.0729094	
0.002025	0.0722511	
0.00203	0.0715371	
0.002035	0.0708677	
0.00204	0.0703068	
0.002045	0.0697965	
0.00205	0.0692486	
0.002055	0.0686544	
0.00206	0.0680576	
0.002065	0.0674399	
0.00207	0.0667425	
0.002075	0.0659781	
0.00208	0.0652055	
0.002085	0.0644167	
0.00209	0.0635593	
0.002095	0.0626498	
0.0021	0.0617489	
0.002105	0.0608488	
0.00211	0.0598966	
0.002115	0.0589077	
0.00212	0.0579413	
0.002125	0.056988	
0.00213	0.0559932	
0.002135	0.0549707	
0.00214	0.0539782	
0.002145	0.0530049	
0.00215	0.0520428	
0.002155	0.0511336	
0.00216	0.0502546	
0.002165	0.0493422	
0.00217	0.0484034	
0.002175	0.0474914	
0.00218	0.0465929	
0.002185	0.0456981	
0.00219	0.0448006	
0.002195	0.0438487	
0.0022	0.0428584	
0.002205	0.0418421	
0.00221	0.0408091	
0.002215	0.0398141	
0.00222	0.0388436	
0.002225	0.0378876	
0.00223	0.0369389	
0.002235	0.0359448	
0.00224	0.0349202	
0.002245	0.033924	
0.00225	0.032946	
0.002255	0.0319789	
0.00226	0.0310646	
0.002265	0.0301809	
0.00227	0.0292641	
0.002275	0.0282737	
0.00228	0.0272816	
0.002285	0.0263829	
0.00229	0.0255408	
0.002295	0.0246807	
0.0023	0.0237543	
0.002305	0.0227806	
0.00231	0.0218217	
0.002315	0.0209178	
0.00232	0.0200931	
0.002325	0.019312	
0.00233	0.0185015	
0.002335	0.0176625	
0.00234	0.0167968	
0.002345	0.0158594	
0.00235	0.0148714	
0.002355	0.013897	
0.00236	0.0129299	
0.002365	0.0119659	
0.00237	0.0110496	
0.002375	0.0101605	
0.00238	0.00928381	
0.002385	0.00845683	
0.00239	0.00765418	
0.002395	0.00681047	
0.0024	0.00593205	
0.002405	0.00507231	
0.00241	0.00426553	
0.002415	0.0034843	
0.00242	0.00270933	
0.002425	0.00197515	
0.00243	0.00125504	
0.002435	0.000530741	
0.00244	-0.000162065	
0.002445	-0.000801339	
0.00245	-0.00137508	
0.002455	-0.00192601	
0.00246	-0.00253091	
0.002465	-0.00319033	
0.00247	-0.0038545	
0.002475	-0.00449039	
0.00248	-0.00512509	
0.002485	-0.00582406	
0.00249	-0.00657988	
0.002495	-0.00733744	
0.0025	-0.00806031	
0.002505	-0.00872612	
0.00251	-0.00932282	
0.002515	-0.00984572	
0.00252	-0.0103428	
0.002525	-0.0108943	
0.00253	-0.0115033	
0.002535	-0.0121213	
0.00254	-0.012716	
0.002545	-0.0132673	
0.00255	-0.0137638	
0.002555	-0.0142008	
0.00256	-0.0146253	
0.002565	-0.0151166	
0.00257	-0.0156763	
0.002575	-0.0162546	
0.00258	-0.0168178	
0.002585	-0.0173444	
0.00259	-0.017822	
0.002595	-0.0182922	
0.0026	-0.0187828	
0.002605	-0.0192636	
0.00261	-0.0197629	
0.002615	-0.0202982	
0.00262	-0.0208319	
0.002625	-0.0213869	
0.00263	-0.0220247	
0.002635	-0.022687	
0.00264	-0.0232391	
0.002645	-0.0236447	
0.00265	-0.0239822	
0.002655	-0.0243064	
0.00266	-0.0245589	
0.002665	-0.0247521	
0.00267	-0.0249448	
0.002675	-0.0251279	
0.00268	-0.0253436	
0.002685	-0.0256181	
0.00269	-0.0259184	
0.002695	-0.0262215	
0.0027	-0.0265121	
0.002705	-0.0267808	
0.00271	-0.0270223	
0.002715	-0.0272344	
0.00272	-0.0274171	
0.002725	-0.0275718	
0.00273	-0.0277007	
0.002735	-0.0278065	
0.00274	-0.0278921	
0.002745	-0.0279127	
0.00275	-0.027842	
0.002755	-0.027762	
0.00276	-0.0277747	
0.002765	-0.0278955	
0.00277	-0.0280342	
0.002775	-0.0281307	
0.00278	-0.0281949	
0.002785	-0.0282346	
0.00279	-0.0282088	
0.002795	-0.0280935	
0.0028	-0.0279722	
0.002805	-0.0279001	
0.00281	-0.027864	
0.002815	-0.0278533	
0.00282	-0.0278123	
0.002825	-0.0275631	
0.00283	-0.0269983	
0.002835	-0.0262521	
0.00284	-0.0254217	
0.002845	-0.0244798	
0.00285	-0.023414	
0.002855	-0.0219841	
0.00286	-0.0198589	
0.002865	-0.0170906	
0.00287	-0.0138865	
0.002875	-0.0104042	
0.00288	-0.00680786	
0.002885	-0.0032115	
0.00289	0.000309868	
0.002895	0.00375785	
0.0029	0.00713698	
0.002905	0.0103584	
0.00291	0.0133235	
0.002915	0.0160269	
0.00292	0.0185724	
0.002925	0.0210361	
0.00293	0.0233768	
0.002935	0.0255733	
0.00294	0.0276659	
0.002945	0.029686	
0.00295	0.0316579	
0.002955	0.0335523	
0.00296	0.0353535	
0.002965	0.0371031	
0.00297	0.038831	
0.002975	0.040558	
0.00298	0.0422978	
0.002985	0.0440587	
0.00299	0.0457979	
0.002995	0.0474405	
0.003	0.0489892	
0.003005	0.0504978	
0.00301	0.0519562	
0.003015	0.0533601	
0.00302	0.0547566	
0.003025	0.0561298	
0.00303	0.0574702	
0.003035	0.0588206	
0.00304	0.0601138	
0.003045	0.0613081	
0.00305	0.0625233	
0.003055	0.0637423	
0.00306	0.0648587	
0.003065	0.0659497	
0.00307	0.0670673	
0.003075	0.0681497	
0.00308	0.0691577	
0.003085	0.0700689	
0.00309	0.0709208	
0.003095	0.0717883	
0.0031	0.0726726	
0.003105	0.0734787	
0.00311	0.074195	
0.003115	0.0749133	
0.00312	0.0756941	
0.003125	0.0765742	
0.00313	0.0775256	
0.003135	0.0784792	
0.00314	0.0793889	
0.003145	0.0802269	
0.00315	0.0809778	
0.003155	0.0816833	
0.00316	0.0824207	
0.003165	0.0831441	
0.00317	0.0837766	
0.003175	0.0843668	
0.00318	0.0849487	
0.003185	0.0854976	
0.00319	0.0859988	
0.003195	0.0864448	
0.0032	0.0868334	
0.003205	0.0871656	
0.00321	0.0874451	
0.003215	0.0876765	
0.00322	0.0879129	
0.003225	0.0881888	
0.00323	0.0884778	
0.003235	0.0887617	
0.00324	0.0889814	
0.003245	0.0891007	
0.00325	0.0891958	
0.003255	0.0893179	
0.00326	0.089452	
0.003265	0.0895878	
0.00327	0.0896707	
0.003275	0.0896672	
0.00328	0.089607	
0.003285	0.0896073	
0.00329	0.0897425	
0.003295	0.0898652	
0.0033	0.0898788	
0.003305	0.0898199	
0.00331	0.0897158	
0.003315	0.089587	
0.00332	0.0894479	
0.003325	0.0893086	
0.00333	0.0891758	
0.003335	0.089006	
0.00334	0.0887248	
0.003345	0.0883358	
0.00335	0.0878943	
0.003355	0.0874389	
0.00336	0.086996	
0.003365	0.0865347	
0.00337	0.085988	
0.003375	0.0853633	
0.00338	0.0847168	
0.003385	0.0840865	
0.00339	0.083449	
0.003395	0.082742	
0.0034	0.0820226	
0.003405	0.0813765	
0.00341	0.0807618	
0.003415	0.0801494	
0.00342	0.0795674	
0.003425	0.0789854	
0.00343	0.078336	
0.003435	0.0776252	
0.00344	0.0769076	
0.003445	0.0761719	
0.00345	0.0753641	
0.003455	0.0744993	
0.00346	0.0736378	
0.003465	0.0727718	
0.00347	0.0718487	
0.003475	0.070884	
0.00348	0.0699375	
0.003485	0.0690004	
0.00349	0.0680661	
0.003495	0.0671779	
0.0035	0.0663146	
0.003505	0.0654609	
0.00351	0.0646541	
0.003515	0.0638687	
0.00352	0.0630395	
0.003525	0.0621256	
0.00353	0.061104	
0.003535	0.0600122	
0.00354	0.0589257	
0.003545	0.0578941	
0.00355	0.0569	
0.003555	0.0558826	
0.00356	0.0548503	
0.003565	0.0538571	
0.00357	0.052889	
0.003575	0.0518883	
0.00358	0.0508184	
0.003585	0.0497058	
0.00359	0.0486652	
0.003595	0.0477214	
0.0036	0.046791	
0.003605	0.0458658	
0.00361	0.0449879	
0.003615	0.0441351	
0.00362	0.0432441	
0.003625	0.0423226	
0.00363	0.0413769	
0.003635	0.0404126	
0.00364	0.0394816	
0.003645	0.038569	
0.00365	0.0376642	
0.003655	0.0368073	
0.00366	0.035975	
0.003665	0.0351033	
0.00367	0.0341992	
0.003675	0.033269	
0.00368	0.0322705	
0.003685	0.0312267	
0.00369	0.0302023	
0.003695	0.0292393	
0.0037	0.0283147	
0.003705	0.0273641	
0.00371	0.0263937	
0.003715	0.0254563	
0.00372	0.0245374	
0.003725	0.023579	
0.00373	0.0225925	
0.003735	0.021634	
0.00374	0.0207393	
0.003745	0.0199291	
0.00375	0.0191653	
0.003755	0.0184207	
0.00376	0.017724	
0.003765	0.0170443	
0.00377	0.0163129	
0.003775	0.0154869	
0.00378	0.0145901	
0.003785	0.0136889	
0.00379	0.0128276	
0.003795	0.0120333	
0.0038	0.0112732	
0.003805	0.0104764	
0.00381	0.00964577	
0.003815	0.00883198	
0.00382	0.00806783	
0.003825	0.00732501	
0.00383	0.00653631	
0.003835	0.00570714	
0.00384	0.00493803	
0.003845	0.0042449	
0.00385	0.00349205	
0.003855	0.00268789	
0.00386	0.00193547	
0.003865	0.00120521	
0.00387	0.000476582	
0.003875	-0.00021652	
0.00388	-0.000900947	
0.003885	-0.00164236	
0.00389	-0.0024338	
0.003895	-0.0032208	
0.0039	-0.00396766	
0.003905	-0.00465271	
0.00391	-0.00531215	
0.003915	-0.00601859	
0.00392	-0.00677013	
0.003925	-0.00751587	
0.00393	-0.0082225	
0.003935	-0.00891748	
0.00394	-0.00961942	
0.003945	-0.0102452	
0.00395	-0.0107912	
0.003955	-0.0113063	
0.00396	-0.0117292	
0.003965	-0.0120236	
0.00397	-0.0122195	
0.003975	-0.0123886	
0.00398	-0.0125797	
0.003985	-0.0127762	
0.00399	-0.013062	
0.003995	-0.0135359	
0.004	-0.0141588	
0.004005	-0.014803	
0.00401	-0.0153832	
0.004015	-0.0159889	
0.00402	-0.0166303	
0.004025	-0.0171698	
0.00403	-0.0176165	
0.004035	-0.0180761	
0.00404	-0.01857	
0.004045	-0.0190155	
0.00405	-0.0194082	
0.004055	-0.0197949	
0.00406	-0.0201118	
0.004065	-0.0203678	
0.00407	-0.020619	
0.004075	-0.0208076	
0.00408	-0.0209461	
0.004085	-0.0210925	
0.00409	-0.0212372	
0.004095	-0.0213738	
0.0041	-0.0215939	
0.004105	-0.0220011	
0.00411	-0.0224649	
0.004115	-0.022849	
0.00412	-0.0231624	
0.004125	-0.0234144	
0.00413	-0.0236139	
0.004135	-0.0237694	
0.00414	-0.0238886	
0.004145	-0.0239781	
0.00415	-0.0240439	
0.004155	-0.0240434	
0.00416	-0.0239516	
0.004165	-0.023804	
0.00417	-0.0235791	
0.004175	-0.0233138	
0.00418	-0.0231295	
0.004185	-0.0230548	
0.00419	-0.023056	
0.004195	-0.0230596	
0.0042	-0.0229696	
0.004205	-0.0227745	
0.00421	-0.0225194	
0.004215	-0.0222368	
0.00422	-0.0219494	
0.004225	-0.0216725	
0.00423	-0.0214156	
0.004235	-0.021184	
0.00424	-0.02098	
0.004245	-0.0208039	
0.00425	-0.0207021	
0.004255	-0.0207016	
0.00426	-0.0207203	
0.004265	-0.0206558	
0.00427	-0.020492	
0.004275	-0.0203179	
0.00428	-0.0201453	
0.004285	-0.0198868	
0.00429	-0.0195363	
0.004295	-0.0191417	
0.0043	-0.0187368	
0.004305	-0.0183442	
0.00431	-0.0179307	
0.004315	-0.0174279	
0.00432	-0.016795	
0.004325	-0.0159637	
0.00433	-0.0148981	
0.004335	-0.0136811	
0.00434	-0.0122315	
0.004345	-0.0102694	
0.00435	-0.00772947	
0.004355	-0.004786	
0.00436	-0.00166817	
0.004365	0.0014647	
0.00437	0.0046019	
0.004375	0.00773619	
0.00438	0.0107679	
0.004385	0.013636	
0.00439	0.0163557	
0.004395	0.0188965	
0.0044	0.0212467	
0.004405	0.0235026	
0.00441	0.0257323	
0.004415	0.0278867	
0.00442	0.0298897	
0.004425	0.0317456	
0.00443	0.0335118	
0.004435	0.0351828	
0.00444	0.0367596	
0.004445	0.0382948	
0.00445	0.039825	
0.004455	0.0413746	
0.00446	0.0429588	
0.004465	0.0445859	
0.00447	0.0462119	
0.004475	0.0477602	
0.00448	0.0492317	
0.004485	0.0506779	
0.00449	0.0521342	
0.004495	0.0535758	
0.0045	0.0549394	
0.004505	0.0561872	
0.00451	0.0572996	
0.004515	0.0583652	
0.00452	0.0594921	
0.004525	0.0606537	
0.00453	0.0617832	
0.004535	0.0628382	
0.00454	0.0638416	
0.004545	0.0648111	
0.00455	0.0657124	
0.004555	0.0665736	
0.00456	0.0674152	
0.004565	0.0682041	
0.00457	0.0689684	
0.004575	0.0697755	
0.00458	0.0706201	
0.004585	0.0714495	
0.00459	0.0722296	
0.004595	0.0729404	
0.0046	0.0736194	
0.004605	0.0743403	
0.00461	0.0750548	
0.004615	0.0756362	
0.00462	0.0761024	
0.004625	0.0765656	
0.00463	0.0770524	
0.004635	0.0775794	
0.00464	0.078203	
0.004645	0.0788607	
0.00465	0.0794148	
0.004655	0.0798269	
0.00466	0.0801258	
0.004665	0.0803359	
0.00467	0.0804776	
0.004675	0.0805674	
0.00468	0.0806188	
0.004685	0.0806425	
0.00469	0.0806467	
0.004695	0.0806379	
0.0047	0.080621	
0.004705	0.0805994	
0.00471	0.0805759	
0.004715	0.0805046	
0.00472	0.0803577	
0.004725	0.0802154	
0.00473	0.0801304	
0.004735	0.0800872	
0.00474	0.0800736	
0.004745	0.0800326	
0.00475	0.0798805	
0.004755	0.0796147	
0.00476	0.0792865	
0.004765	0.0789328	
0.00477	0.0785789	
0.004775	0.0781941	
0.00478	0.0777596	
0.004785	0.0773129	
0.00479	0.0768793	
0.004795	0.0764748	
0.0048	0.0760611	
0.004805	0.0756133	
0.00481	0.0751643	
0.004815	0.0746882	
0.00482	0.0741216	
0.004825	0.0734747	
0.00483	0.0728053	
0.004835	0.0721529	
0.00484	0.0714949	
0.004845	0.0707218	
0.00485	0.0698143	
0.004855	0.0689561	
0.00486	0.0682662	
0.004865	0.0676247	
0.00487	0.0669029	
0.004875	0.0661147	
0.00488	0.0653201	
0.004885	0.0645588	
0.00489	0.063808	
0.004895	0.0630045	
0.0049	0.0622042	
0.004905	0.0614915	
0.00491	0.0607752	
0.004915	0.0599477	
0.00492	0.0590386	
0.004925	0.0581186	
0.00493	0.057235	
0.004935	0.0564171	
0.00494	0.0556338	
0.004945	0.0548152	
0.00495	0.053917	
0.004955	0.0529612	
0.00496	0.0520127	
0.004965	0.0511139	
0.00497	0.0502903	
0.004975	0.0494602	
0.00498	0.0485225	
0.004985	0.0475107	
0.00499	0.0464978	
0.004995	0.0455321	
0.005	0.0445957	
0.005005	0.0436278	
0.00501	0.0426375	
0.005015	0.0416791	
0.00502	0.0407396	
0.005025	0.0397619	
0.00503	0.0387578	
0.005035	0.0377362	
0.00504	0.0366563	
0.005045	0.035589	
0.00505	0.0346281	
0.005055	0.0337352	
0.00506	0.0328344	
