Time - Plot 0	Amplitude - Plot 0	
0	0.199212	
5E-6	0.198899	
1E-5	0.198603	
1.5E-5	0.198331	
2E-5	0.198088	
2.5E-5	0.197875	
3E-5	0.197645	
3.5E-5	0.197415	
4E-5	0.197291	
4.5E-5	0.197242	
5E-5	0.197245	
5.5E-5	0.197329	
6E-5	0.197417	
6.5E-5	0.197454	
7E-5	0.197456	
7.5E-5	0.197483	
8E-5	0.197572	
8.5E-5	0.19765	
9E-5	0.197813	
9.5E-5	0.198214	
0.0001	0.198658	
0.000105	0.198872	
0.00011	0.198828	
0.000115	0.198665	
0.00012	0.198478	
0.000125	0.198141	
0.00013	0.197579	
0.000135	0.197038	
0.00014	0.196679	
0.000145	0.196456	
0.00015	0.196335	
0.000155	0.196285	
0.00016	0.196286	
0.000165	0.196319	
0.00017	0.196373	
0.000175	0.196437	
0.00018	0.196505	
0.000185	0.196478	
0.00019	0.196294	
0.000195	0.19611	
0.0002	0.19603	
0.000205	0.19607	
0.00021	0.196282	
0.000215	0.196598	
0.00022	0.196872	
0.000225	0.197011	
0.00023	0.197006	
0.000235	0.197002	
0.00024	0.197093	
0.000245	0.197196	
0.00025	0.197253	
0.000255	0.197279	
0.00026	0.197282	
0.000265	0.19727	
0.00027	0.197248	
0.000275	0.197221	
0.00028	0.197288	
0.000285	0.197507	
0.00029	0.19777	
0.000295	0.198049	
0.0003	0.198372	
0.000305	0.198663	
0.00031	0.198822	
0.000315	0.198793	
0.00032	0.198641	
0.000325	0.19851	
0.00033	0.198446	
0.000335	0.19843	
0.00034	0.198446	
0.000345	0.198483	
0.00035	0.198484	
0.000355	0.198461	
0.00036	0.198424	
0.000365	0.198283	
0.00037	0.198082	
0.000375	0.197802	
0.00038	0.197389	
0.000385	0.197002	
0.00039	0.196794	
0.000395	0.196809	
0.0004	0.197016	
0.000405	0.197342	
0.00041	0.19773	
0.000415	0.198141	
0.00042	0.198547	
0.000425	0.198884	
0.00043	0.199064	
0.000435	0.199131	
0.00044	0.199217	
0.000445	0.199358	
0.00045	0.199481	
0.000455	0.19954	
0.00046	0.1996	
0.000465	0.199659	
0.00047	0.199713	
0.000475	0.199858	
0.00048	0.200008	
0.000485	0.200059	
0.00049	0.200042	
0.000495	0.199981	
0.0005	0.199895	
0.000505	0.199795	
0.00051	0.199739	
0.000515	0.199714	
0.00052	0.199664	
0.000525	0.199599	
0.00053	0.199481	
0.000535	0.199284	
0.00054	0.199093	
0.000545	0.199011	
0.00055	0.199003	
0.000555	0.19895	
0.00056	0.198822	
0.000565	0.198651	
0.00057	0.198459	
0.000575	0.19831	
0.00058	0.198245	
0.000585	0.198237	
0.00059	0.198268	
0.000595	0.198322	
0.0006	0.198343	
0.000605	0.198292	
0.00061	0.198244	
0.000615	0.198201	
0.00062	0.198114	
0.000625	0.198052	
0.00063	0.198102	
0.000635	0.198226	
0.00064	0.198296	
0.000645	0.19828	
0.00065	0.198208	
0.000655	0.198103	
0.00066	0.198029	
0.000665	0.198025	
0.00067	0.198069	
0.000675	0.198189	
0.00068	0.198354	
0.000685	0.198445	
0.00069	0.198436	
0.000695	0.198362	
0.0007	0.198248	
0.000705	0.198113	
0.00071	0.19797	
0.000715	0.197877	
0.00072	0.197917	
0.000725	0.198041	
0.00073	0.19812	
0.000735	0.198119	
0.00074	0.198065	
0.000745	0.198025	
0.00075	0.198093	
0.000755	0.198275	
0.00076	0.198477	
0.000765	0.198587	
0.00077	0.198583	
0.000775	0.198506	
0.00078	0.19843	
0.000785	0.198407	
0.00079	0.198419	
0.000795	0.198455	
0.0008	0.198456	
0.000805	0.198388	
0.00081	0.198324	
0.000815	0.198313	
0.00082	0.198291	
0.000825	0.198214	
0.00083	0.198106	
0.000835	0.197981	
0.00084	0.197852	
0.000845	0.197773	
0.00085	0.197779	
0.000855	0.197793	
0.00086	0.197764	
0.000865	0.197708	
0.00087	0.197637	
0.000875	0.197559	
0.00088	0.197481	
0.000885	0.197406	
0.00089	0.197336	
0.000895	0.197274	
0.0009	0.197266	
0.000905	0.197343	
0.00091	0.197425	
0.000915	0.19741	
0.00092	0.197285	
0.000925	0.197141	
0.00093	0.197039	
0.000935	0.196969	
0.00094	0.196923	
0.000945	0.196896	
0.00095	0.19693	
0.000955	0.19705	
0.00096	0.197221	
0.000965	0.197466	
0.00097	0.197794	
0.000975	0.198162	
0.00098	0.198492	
0.000985	0.198734	
0.00099	0.198953	
0.000995	0.199146	
0.001	0.199267	
0.001005	0.199334	
0.00101	0.199362	
0.001015	0.199363	
0.00102	0.199299	
0.001025	0.199194	
0.00103	0.199164	
0.001035	0.199231	
0.00104	0.199359	
0.001045	0.199521	
0.00105	0.199698	
0.001055	0.199877	
0.00106	0.200048	
0.001065	0.200206	
0.00107	0.200348	
0.001075	0.200473	
0.00108	0.20058	
0.001085	0.200671	
0.00109	0.200699	
0.001095	0.200637	
0.0011	0.200566	
0.001105	0.20054	
0.00111	0.200545	
0.001115	0.200427	
0.00112	0.200092	
0.001125	0.199771	
0.00113	0.199571	
0.001135	0.199411	
0.00114	0.199286	
0.001145	0.19919	
0.00115	0.199118	
0.001155	0.199016	
0.00116	0.198901	
0.001165	0.198877	
0.00117	0.198914	
0.001175	0.198943	
0.00118	0.198964	
0.001185	0.198932	
0.00119	0.198866	
0.001195	0.198829	
0.0012	0.198812	
0.001205	0.19881	
0.00121	0.198912	
0.001215	0.199174	
0.00122	0.199433	
0.001225	0.19963	
0.00123	0.199826	
0.001235	0.20001	
0.00124	0.200179	
0.001245	0.200472	
0.00125	0.200975	
0.001255	0.201452	
0.00126	0.201697	
0.001265	0.201731	
0.00127	0.201671	
0.001275	0.2016	
0.00128	0.201478	
0.001285	0.20128	
0.00129	0.201041	
0.001295	0.20074	
0.0013	0.200363	
0.001305	0.199812	
0.00131	0.199078	
0.001315	0.198447	
0.00132	0.19801	
0.001325	0.19772	
0.00133	0.197637	
0.001335	0.197742	
0.00134	0.19787	
0.001345	0.197913	
0.00135	0.197992	
0.001355	0.198139	
0.00136	0.198229	
0.001365	0.198277	
0.00137	0.198391	
0.001375	0.198589	
0.00138	0.198834	
0.001385	0.199098	
0.00139	0.199315	
0.001395	0.199443	
0.0014	0.199506	
0.001405	0.199523	
0.00141	0.19951	
0.001415	0.199477	
0.00142	0.199432	
0.001425	0.199334	
0.00143	0.199206	
0.001435	0.199064	
0.00144	0.198825	
0.001445	0.198532	
0.00145	0.198314	
0.001455	0.198202	
0.00146	0.198166	
0.001465	0.198229	
0.00147	0.198354	
0.001475	0.198467	
0.00148	0.198566	
0.001485	0.198605	
0.00149	0.198553	
0.001495	0.198398	
0.0015	0.198133	
0.001505	0.197857	
0.00151	0.197634	
0.001515	0.197456	
0.00152	0.197316	
0.001525	0.197208	
0.00153	0.197127	
0.001535	0.197066	
0.00154	0.197023	
0.001545	0.197039	
0.00155	0.197143	
0.001555	0.197252	
0.00156	0.19731	
0.001565	0.197334	
0.00157	0.197333	
0.001575	0.197363	
0.00158	0.19746	
0.001585	0.197597	
0.00159	0.197753	
0.001595	0.197867	
0.0016	0.197949	
0.001605	0.198052	
0.00161	0.198117	
0.001615	0.198106	
0.00162	0.197998	
0.001625	0.197784	
0.00163	0.197558	
0.001635	0.197382	
0.00164	0.197294	
0.001645	0.197317	
0.00165	0.197364	
0.001655	0.197377	
0.00166	0.197367	
0.001665	0.19739	
0.00167	0.197481	
0.001675	0.197612	
0.00168	0.197764	
0.001685	0.197828	
0.00169	0.197735	
0.001695	0.19759	
0.0017	0.197514	
0.001705	0.197534	
0.00171	0.197568	
0.001715	0.197564	
0.00172	0.197533	
0.001725	0.197535	
0.00173	0.197605	
0.001735	0.197669	
0.00174	0.197679	
0.001745	0.197701	
0.00175	0.197776	
0.001755	0.197883	
0.00176	0.198007	
0.001765	0.198135	
0.00177	0.19826	
0.001775	0.198377	
0.00178	0.198579	
0.001785	0.198874	
0.00179	0.199074	
0.001795	0.199108	
0.0018	0.199029	
0.001805	0.198881	
0.00181	0.198693	
0.001815	0.198489	
0.00182	0.198283	
0.001825	0.198133	
0.00183	0.198075	
0.001835	0.198033	
0.00184	0.197956	
0.001845	0.197859	
0.00185	0.197754	
0.001855	0.197648	
0.00186	0.197594	
0.001865	0.197625	
0.00187	0.197663	
0.001875	0.197703	
0.00188	0.197838	
0.001885	0.19803	
0.00189	0.198154	
0.001895	0.198181	
0.0019	0.198142	
0.001905	0.198061	
0.00191	0.197957	
0.001915	0.197843	
0.00192	0.197727	
0.001925	0.197615	
0.00193	0.197512	
0.001935	0.197466	
0.00194	0.197508	
0.001945	0.197607	
0.00195	0.197737	
0.001955	0.197835	
0.00196	0.197859	
0.001965	0.197882	
0.00197	0.197949	
0.001975	0.198043	
0.00198	0.19815	
0.001985	0.19826	
0.00199	0.198368	
0.001995	0.198468	
0.002	0.19856	
0.002005	0.198593	
0.00201	0.198539	
0.002015	0.198477	
0.00202	0.198508	
0.002025	0.198647	
0.00203	0.198803	
0.002035	0.198914	
0.00204	0.198992	
0.002045	0.198995	
0.00205	0.198903	
0.002055	0.198751	
0.00206	0.198615	
0.002065	0.198591	
0.00207	0.198689	
0.002075	0.198816	
0.00208	0.198908	
0.002085	0.198973	
0.00209	0.199016	
0.002095	0.199044	
0.0021	0.199013	
0.002105	0.198896	
0.00211	0.198776	
0.002115	0.198708	
0.00212	0.198676	
0.002125	0.19867	
0.00213	0.198634	
0.002135	0.19858	
0.00214	0.198564	
0.002145	0.198574	
0.00215	0.1986	
0.002155	0.198589	
0.00216	0.198505	
0.002165	0.198426	
0.00217	0.1984	
0.002175	0.198459	
0.00218	0.198619	
0.002185	0.198789	
0.00219	0.198911	
0.002195	0.198948	
0.0022	0.198927	
0.002205	0.198916	
0.00221	0.198866	
0.002215	0.198743	
0.00222	0.198627	
0.002225	0.198567	
0.00223	0.198501	
0.002235	0.198386	
0.00224	0.198243	
0.002245	0.198137	
0.00225	0.198108	
0.002255	0.198131	
0.00226	0.198234	
0.002265	0.198433	
0.00227	0.198639	
0.002275	0.198744	
0.00228	0.198729	
0.002285	0.198685	
0.00229	0.198718	
0.002295	0.198848	
0.0023	0.198988	
0.002305	0.199033	
0.00231	0.198966	
0.002315	0.198876	
0.00232	0.198822	
0.002325	0.198747	
0.00233	0.198662	
0.002335	0.198621	
0.00234	0.198612	
0.002345	0.198625	
0.00235	0.19865	
0.002355	0.198731	
0.00236	0.198892	
0.002365	0.199098	
0.00237	0.199276	
0.002375	0.199333	
0.00238	0.199307	
0.002385	0.199275	
0.00239	0.199193	
0.002395	0.199082	
0.0024	0.199053	
0.002405	0.199078	
0.00241	0.199091	
0.002415	0.199094	
0.00242	0.199045	
0.002425	0.198962	
0.00243	0.198909	
0.002435	0.198878	
0.00244	0.198911	
0.002445	0.199032	
0.00245	0.199205	
0.002455	0.199404	
0.00246	0.199563	
0.002465	0.199641	
0.00247	0.199663	
0.002475	0.199597	
0.00248	0.199431	
0.002485	0.199253	
0.00249	0.199123	
0.002495	0.199032	
0.0025	0.199017	
0.002505	0.199054	
0.00251	0.199028	
0.002515	0.198914	
0.00252	0.198796	
0.002525	0.198774	
0.00253	0.198818	
0.002535	0.198856	
0.00254	0.198887	
0.002545	0.198912	
0.00255	0.198933	
0.002555	0.199045	
0.00256	0.199354	
0.002565	0.199683	
0.00257	0.19982	
0.002575	0.199824	
0.00258	0.199787	
0.002585	0.199726	
0.00259	0.199698	
0.002595	0.199742	
0.0026	0.19983	
0.002605	0.199896	
0.00261	0.199898	
0.002615	0.199808	
0.00262	0.199568	
0.002625	0.199288	
0.00263	0.199136	
0.002635	0.199125	
0.00264	0.199206	
0.002645	0.199298	
0.00265	0.199296	
0.002655	0.199186	
0.00266	0.199056	
0.002665	0.198968	
0.00267	0.198911	
0.002675	0.198925	
0.00268	0.199033	
0.002685	0.199149	
0.00269	0.199219	
0.002695	0.199254	
0.0027	0.199218	
0.002705	0.199088	
0.00271	0.198903	
0.002715	0.198691	
0.00272	0.198517	
0.002725	0.198425	
0.00273	0.198392	
0.002735	0.198398	
0.00274	0.198383	
0.002745	0.19826	
0.00275	0.198023	
0.002755	0.19777	
0.00276	0.197614	
0.002765	0.197576	
0.00277	0.197571	
0.002775	0.197587	
0.00278	0.197712	
0.002785	0.197903	
0.00279	0.198032	
0.002795	0.198116	
0.0028	0.19826	
0.002805	0.198438	
0.00281	0.198581	
0.002815	0.198695	
0.00282	0.198784	
0.002825	0.198853	
0.00283	0.198858	
0.002835	0.198772	
0.00284	0.198679	
0.002845	0.198632	
0.00285	0.198619	
0.002855	0.198675	
0.00286	0.198822	
0.002865	0.199023	
0.00287	0.199249	
0.002875	0.199481	
0.00288	0.199658	
0.002885	0.199744	
0.00289	0.199765	
0.002895	0.199742	
0.0029	0.199787	
0.002905	0.19997	
0.00291	0.200186	
0.002915	0.20032	
0.00292	0.200346	
0.002925	0.200347	
0.00293	0.200378	
0.002935	0.200381	
0.00294	0.20027	
0.002945	0.200089	
0.00295	0.199918	
0.002955	0.199761	
0.00296	0.199622	
0.002965	0.1995	
0.00297	0.199396	
0.002975	0.199356	
0.00298	0.199408	
0.002985	0.19947	
0.00299	0.199488	
0.002995	0.199429	
0.003	0.199323	
0.003005	0.199284	
0.00301	0.19934	
0.003015	0.199409	
0.00302	0.199386	
0.003025	0.199258	
0.00303	0.199114	
0.003035	0.19906	
0.00304	0.199117	
0.003045	0.199244	
0.00305	0.199411	
0.003055	0.199596	
0.00306	0.199738	
0.003065	0.199796	
0.00307	0.199844	
0.003075	0.199883	
0.00308	0.199866	
0.003085	0.199814	
0.00309	0.199741	
0.003095	0.199706	
0.0031	0.199696	
0.003105	0.199656	
0.00311	0.199599	
0.003115	0.199532	
0.00312	0.199511	
0.003125	0.19952	
0.00313	0.199501	
0.003135	0.199464	
0.00314	0.199418	
0.003145	0.199415	
0.00315	0.199441	
0.003155	0.199437	
0.00316	0.199461	
0.003165	0.199549	
0.00317	0.199677	
0.003175	0.199776	
0.00318	0.199757	
0.003185	0.199661	
0.00319	0.199661	
0.003195	0.199772	
0.0032	0.199857	
0.003205	0.199919	
0.00321	0.200011	
0.003215	0.200119	
0.00322	0.200185	
0.003225	0.200172	
0.00323	0.200107	
0.003235	0.200012	
0.00324	0.199949	
0.003245	0.199957	
0.00325	0.199965	
0.003255	0.199924	
0.00326	0.199901	
0.003265	0.19989	
0.00327	0.19984	
0.003275	0.199768	
0.00328	0.199683	
0.003285	0.199595	
0.00329	0.199461	
0.003295	0.199303	
0.0033	0.199232	
0.003305	0.199221	
0.00331	0.199156	
0.003315	0.19901	
0.00332	0.198866	
0.003325	0.198777	
0.00333	0.198729	
0.003335	0.198709	
0.00334	0.19871	
0.003345	0.198772	
0.00335	0.19887	
0.003355	0.198894	
0.00336	0.198819	
0.003365	0.198683	
0.00337	0.19856	
0.003375	0.198548	
0.00338	0.198608	
0.003385	0.198666	
0.00339	0.198767	
0.003395	0.198893	
0.0034	0.198932	
0.003405	0.198914	
0.00341	0.198906	
0.003415	0.198905	
0.00342	0.198908	
0.003425	0.198867	
0.00343	0.198751	
0.003435	0.198591	
0.00344	0.198409	
0.003445	0.19827	
0.00345	0.19826	
0.003455	0.198383	
0.00346	0.19854	
0.003465	0.198618	
0.00347	0.198545	
0.003475	0.198375	
0.00348	0.198245	
0.003485	0.198147	
0.00349	0.198028	
0.003495	0.197947	
0.0035	0.197944	
0.003505	0.197991	
0.00351	0.19807	
0.003515	0.198165	
0.00352	0.198268	
0.003525	0.198322	
0.00353	0.198295	
0.003535	0.198215	
0.00354	0.198104	
0.003545	0.197978	
0.00355	0.197848	
0.003555	0.197721	
0.00356	0.197603	
0.003565	0.197543	
0.00357	0.197572	
0.003575	0.197659	
0.00358	0.197827	
0.003585	0.19804	
0.00359	0.198179	
0.003595	0.198261	
0.0036	0.198398	
0.003605	0.198563	
0.00361	0.198693	
0.003615	0.19884	
0.00362	0.198992	
0.003625	0.199045	
0.00363	0.19903	
0.003635	0.199019	
0.00364	0.198962	
0.003645	0.198832	
0.00365	0.198706	
0.003655	0.198684	
0.00366	0.198732	
0.003665	0.198728	
0.00367	0.198691	
0.003675	0.198823	
0.00368	0.199156	
0.003685	0.199464	
0.00369	0.199644	
0.003695	0.199685	
0.0037	0.199631	
0.003705	0.199566	
0.00371	0.199448	
0.003715	0.199302	
0.00372	0.199238	
0.003725	0.199232	
0.00373	0.19917	
0.003735	0.19912	
0.00374	0.199177	
0.003745	0.199253	
0.00375	0.199291	
0.003755	0.199254	
0.00376	0.199171	
0.003765	0.199107	
0.00377	0.198822	
0.003775	0.198215	
0.00378	0.197708	
0.003785	0.197483	
0.00379	0.197406	
0.003795	0.197478	
0.0038	0.197644	
0.003805	0.197771	
0.00381	0.197817	
0.003815	0.197855	
0.00382	0.197935	
0.003825	0.198037	
0.00383	0.198245	
0.003835	0.19856	
0.00384	0.198836	
0.003845	0.199073	
0.00385	0.199273	
0.003855	0.199392	
0.00386	0.199451	
0.003865	0.199422	
0.00387	0.199287	
0.003875	0.199089	
0.00388	0.198859	
0.003885	0.198619	
0.00389	0.198383	
0.003895	0.198209	
0.0039	0.198131	
0.003905	0.198121	
0.00391	0.198203	
0.003915	0.198342	
0.00392	0.198417	
0.003925	0.198352	
0.00393	0.198149	
0.003935	0.197912	
0.00394	0.197712	
0.003945	0.197594	
0.00395	0.197629	
0.003955	0.197812	
0.00396	0.198084	
0.003965	0.198402	
0.00397	0.198686	
0.003975	0.198889	
0.00398	0.199027	
0.003985	0.199117	
0.00399	0.199218	
0.003995	0.199322	
0.004	0.199374	
0.004005	0.199391	
0.00401	0.199336	
0.004015	0.199189	
0.00402	0.199035	
0.004025	0.198931	
0.00403	0.198866	
0.004035	0.198877	
0.00404	0.198937	
0.004045	0.198932	
0.00405	0.198836	
0.004055	0.198733	
0.00406	0.198725	
0.004065	0.198828	
0.00407	0.198999	
0.004075	0.199158	
0.00408	0.199256	
0.004085	0.199308	
0.00409	0.199328	
0.004095	0.199325	
0.0041	0.199307	
0.004105	0.199328	
0.00411	0.199374	
0.004115	0.199339	
0.00412	0.199204	
0.004125	0.199058	
0.00413	0.199006	
0.004135	0.199019	
0.00414	0.198979	
0.004145	0.198906	
0.00415	0.198862	
0.004155	0.198839	
0.00416	0.198879	
0.004165	0.198958	
0.00417	0.199012	
0.004175	0.199094	
0.00418	0.199192	
0.004185	0.199246	
0.00419	0.199271	
0.004195	0.199274	
0.0042	0.199262	
0.004205	0.199242	
0.00421	0.199265	
0.004215	0.199362	
0.00422	0.199456	
0.004225	0.199497	
0.00423	0.1995	
0.004235	0.199478	
0.00424	0.199488	
0.004245	0.199519	
0.00425	0.199467	
0.004255	0.199315	
0.00426	0.199153	
0.004265	0.199038	
0.00427	0.198913	
0.004275	0.198739	
0.00428	0.198589	
0.004285	0.198557	
0.00429	0.198652	
0.004295	0.198778	
0.0043	0.198824	
0.004305	0.198814	
0.00431	0.198864	
0.004315	0.198999	
0.00432	0.199135	
0.004325	0.199218	
0.00433	0.199309	
0.004335	0.199402	
0.00434	0.199445	
0.004345	0.199499	
0.00435	0.199558	
0.004355	0.199523	
0.00436	0.199427	
0.004365	0.199391	
0.00437	0.199444	
0.004375	0.199505	
0.00438	0.199474	
0.004385	0.199383	
0.00439	0.199304	
0.004395	0.199238	
0.0044	0.199183	
0.004405	0.199138	
0.00441	0.199101	
0.004415	0.199024	
0.00442	0.198925	
0.004425	0.198863	
0.00443	0.198828	
0.004435	0.19886	
0.00444	0.198936	
0.004445	0.198988	
0.00445	0.199071	
0.004455	0.199169	
0.00446	0.199226	
0.004465	0.199299	
0.00447	0.199429	
0.004475	0.199589	
0.00448	0.199761	
0.004485	0.199934	
0.00449	0.200098	
0.004495	0.200202	
0.0045	0.200166	
0.004505	0.200039	
0.00451	0.199906	
0.004515	0.199728	
0.00452	0.199528	
0.004525	0.199419	
0.00453	0.199421	
0.004535	0.199498	
0.00454	0.19962	
0.004545	0.199766	
0.00455	0.199873	
0.004555	0.199903	
0.00456	0.199879	
0.004565	0.199821	
0.00457	0.199792	
0.004575	0.19983	
0.00458	0.199863	
0.004585	0.199844	
0.00459	0.199791	
0.004595	0.199719	
0.0046	0.199684	
0.004605	0.199724	
0.00461	0.199811	
0.004615	0.199924	
0.00462	0.20005	
0.004625	0.200131	
0.00463	0.200083	
0.004635	0.199905	
0.00464	0.199697	
0.004645	0.199527	
0.00465	0.199389	
0.004655	0.19928	
0.00466	0.199194	
0.004665	0.199128	
0.00467	0.199079	
0.004675	0.19909	
0.00468	0.19914	
0.004685	0.199166	
0.00469	0.199223	
0.004695	0.199297	
0.0047	0.199332	
0.004705	0.199386	
0.00471	0.199451	
0.004715	0.199425	
0.00472	0.199339	
0.004725	0.199267	
0.00473	0.199159	
0.004735	0.199032	
0.00474	0.198947	
0.004745	0.198893	
0.00475	0.198862	
0.004755	0.198848	
0.00476	0.198846	
0.004765	0.198852	
0.00477	0.19891	
0.004775	0.198999	
0.00478	0.199011	
0.004785	0.19897	
0.00479	0.198992	
0.004795	0.199054	
0.0048	0.199092	
0.004805	0.199113	
0.00481	0.199073	
0.004815	0.198996	
0.00482	0.198992	
0.004825	0.199038	
0.00483	0.199066	
0.004835	0.199081	
0.00484	0.199087	
0.004845	0.199134	
0.00485	0.199206	
0.004855	0.199243	
0.00486	0.199256	
0.004865	0.199205	
0.00487	0.199066	
0.004875	0.198876	
0.00488	0.198661	
0.004885	0.198441	
0.00489	0.198179	
0.004895	0.197854	
0.0049	0.197599	
0.004905	0.197497	
0.00491	0.197453	
0.004915	0.197402	
0.00492	0.197396	
0.004925	0.197468	
0.00493	0.197587	
0.004935	0.19778	
0.00494	0.19806	
0.004945	0.198336	
0.00495	0.198645	
0.004955	0.199055	
0.00496	0.199417	
0.004965	0.199636	
0.00497	0.199703	
0.004975	0.199618	
0.00498	0.199485	
0.004985	0.19947	
0.00499	0.19958	
0.004995	0.199624	
0.005	0.199576	
0.005005	0.199565	
0.00501	0.199626	
0.005015	0.199731	
0.00502	0.199813	
0.005025	0.199781	
0.00503	0.199627	
0.005035	0.199401	
0.00504	0.199138	
0.005045	0.198815	
0.00505	0.198468	
0.005055	0.198264	
0.00506	0.198259	
0.005065	0.198338	
0.00507	0.198374	
0.005075	0.198379	
0.00508	0.19846	
0.005085	0.198585	
0.00509	0.19864	
0.005095	0.198645	
0.0051	0.198666	
0.005105	0.198647	
0.00511	0.198556	
0.005115	0.198422	
0.00512	0.198313	
0.005125	0.198273	
0.00513	0.198234	
0.005135	0.198149	
0.00514	0.198037	
0.005145	0.197962	
0.00515	0.197961	
0.005155	0.198009	
0.00516	0.198088	
0.005165	0.198135	
0.00517	0.198112	
0.005175	0.19809	
0.00518	0.198167	
0.005185	0.198351	
0.00519	0.198551	
0.005195	0.198656	
0.0052	0.198694	
0.005205	0.198733	
0.00521	0.198771	
0.005215	0.198855	
0.00522	0.198964	
0.005225	0.199037	
0.00523	0.199131	
0.005235	0.199234	
0.00524	0.199291	
0.005245	0.199362	
0.00525	0.199439	
0.005255	0.199468	
0.00526	0.199466	
0.005265	0.199441	
0.00527	0.199404	
0.005275	0.199313	
0.00528	0.19919	
0.005285	0.199148	
0.00529	0.19916	
0.005295	0.199113	
0.0053	0.199028	
0.005305	0.199019	
0.00531	0.199106	
0.005315	0.199206	
0.00532	0.199215	
0.005325	0.199115	
0.00533	0.198996	
0.005335	0.198965	
0.00534	0.198993	
0.005345	0.198965	
0.00535	0.198852	
0.005355	0.19869	
0.00536	0.198502	
0.005365	0.198306	
0.00537	0.198115	
0.005375	0.197935	
0.00538	0.197819	
0.005385	0.197799	
0.00539	0.197794	
0.005395	0.197753	
0.0054	0.197737	
0.005405	0.197785	
0.00541	0.197875	
0.005415	0.197987	
0.00542	0.198061	
0.005425	0.198059	
0.00543	0.198054	
0.005435	0.198143	
0.00544	0.19829	
0.005445	0.19842	
0.00545	0.198532	
