Time - Plot 0	Amplitude - Plot 0	
0	-0.0276958	
5E-6	-0.0277162	
1E-5	-0.0277022	
1.5E-5	-0.0276187	
2E-5	-0.0274932	
2.5E-5	-0.0272985	
3E-5	-0.0270198	
3.5E-5	-0.0267465	
4E-5	-0.0265371	
4.5E-5	-0.0263798	
5E-5	-0.0262644	
5.5E-5	-0.0261344	
6E-5	-0.0259059	
6.5E-5	-0.0255282	
7E-5	-0.0249749	
7.5E-5	-0.0242369	
8E-5	-0.023317	
8.5E-5	-0.0221781	
9E-5	-0.0205683	
9.5E-5	-0.0181538	
0.0001	-0.0149902	
0.000105	-0.0113871	
0.00011	-0.00756972	
0.000115	-0.00369648	
0.00012	0.000173006	
0.000125	0.00395206	
0.00013	0.00749275	
0.000135	0.0107563	
0.00014	0.013778	
0.000145	0.0165922	
0.00015	0.0192316	
0.000155	0.021726	
0.00016	0.0241019	
0.000165	0.0263823	
0.00017	0.0285871	
0.000175	0.0307802	
0.00018	0.0330045	
0.000185	0.0351443	
0.00019	0.0370795	
0.000195	0.0388358	
0.0002	0.0404387	
0.000205	0.0419122	
0.00021	0.0433256	
0.000215	0.0447277	
0.00022	0.0461511	
0.000225	0.0475688	
0.00023	0.0489631	
0.000235	0.0503712	
0.00024	0.0518169	
0.000245	0.0532664	
0.00025	0.0546024	
0.000255	0.0558004	
0.00026	0.0569458	
0.000265	0.0580974	
0.00027	0.0593412	
0.000275	0.0606821	
0.00028	0.061976	
0.000285	0.0631778	
0.00029	0.064357	
0.000295	0.0655131	
0.0003	0.0666469	
0.000305	0.0677598	
0.00031	0.0688063	
0.000315	0.0698071	
0.00032	0.0707779	
0.000325	0.0716831	
0.00033	0.0725022	
0.000335	0.0732732	
0.00034	0.0740237	
0.000345	0.0747252	
0.00035	0.0754562	
0.000355	0.0762672	
0.00036	0.077045	
0.000365	0.0777166	
0.00037	0.0782865	
0.000375	0.0787623	
0.00038	0.0791535	
0.000385	0.0795181	
0.00039	0.0799429	
0.000395	0.0803873	
0.0004	0.0807761	
0.000405	0.0811573	
0.00041	0.0815631	
0.000415	0.0819659	
0.00042	0.0823952	
0.000425	0.0828692	
0.00043	0.0833502	
0.000435	0.0838131	
0.00044	0.0841947	
0.000445	0.0844571	
0.00045	0.0846759	
0.000455	0.0849033	
0.00046	0.085078	
0.000465	0.0851621	
0.00047	0.0851826	
0.000475	0.0851602	
0.00048	0.0851105	
0.000485	0.0850451	
0.00049	0.0849726	
0.000495	0.0848987	
0.0005	0.0848275	
0.000505	0.0847613	
0.00051	0.0847017	
0.000515	0.0846491	
0.00052	0.0845562	
0.000525	0.0843935	
0.00053	0.0841925	
0.000535	0.0839758	
0.00054	0.0837589	
0.000545	0.0835047	
0.00055	0.0831903	
0.000555	0.0828512	
0.00056	0.0825117	
0.000565	0.0821881	
0.00057	0.0818903	
0.000575	0.0816235	
0.00058	0.0813423	
0.000585	0.0809223	
0.00059	0.0803355	
0.000595	0.0797141	
0.0006	0.0790992	
0.000605	0.0784227	
0.00061	0.07769	
0.000615	0.0769548	
0.00062	0.0762054	
0.000625	0.0753868	
0.00063	0.0745139	
0.000635	0.0736464	
0.00064	0.0728235	
0.000645	0.0720214	
0.00065	0.071176	
0.000655	0.0702943	
0.00066	0.069478	
0.000665	0.068791	
0.00067	0.0681266	
0.000675	0.067366	
0.00068	0.0665304	
0.000685	0.0656848	
0.00069	0.0648726	
0.000695	0.0640734	
0.0007	0.0632254	
0.000705	0.0623379	
0.00071	0.0614662	
0.000715	0.0606463	
0.00072	0.0598517	
0.000725	0.0590163	
0.00073	0.058146	
0.000735	0.0572463	
0.00074	0.0562747	
0.000745	0.0552541	
0.00075	0.054202	
0.000755	0.0531313	
0.00076	0.0520989	
0.000765	0.0510932	
0.00077	0.050105	
0.000775	0.0491752	
0.00078	0.0482803	
0.000785	0.0473081	
0.00079	0.0462359	
0.000795	0.0451959	
0.0008	0.0442265	
0.000805	0.0432067	
0.00081	0.042107	
0.000815	0.0410065	
0.00082	0.0399576	
0.000825	0.0389923	
0.00083	0.0380803	
0.000835	0.037199	
0.00084	0.0363321	
0.000845	0.0354206	
0.00085	0.0344277	
0.000855	0.0333807	
0.00086	0.0323474	
0.000865	0.0313245	
0.00087	0.0303094	
0.000875	0.0293473	
0.00088	0.0284183	
0.000885	0.0274598	
0.00089	0.0264798	
0.000895	0.0254844	
0.0009	0.0244783	
0.000905	0.0235604	
0.00091	0.022744	
0.000915	0.0219381	
0.00092	0.0211296	
0.000925	0.0203102	
0.00093	0.0194273	
0.000935	0.0184967	
0.00094	0.0175787	
0.000945	0.0167124	
0.00095	0.0159212	
0.000955	0.0151694	
0.00096	0.014384	
0.000965	0.0135661	
0.00097	0.0127655	
0.000975	0.0119666	
0.00098	0.0111115	
0.000985	0.0102123	
0.00099	0.00932655	
0.000995	0.00849155	
0.001	0.00772951	
0.001005	0.00700408	
0.00101	0.00624204	
0.001015	0.00544435	
0.00102	0.0046609	
0.001025	0.00392388	
0.00103	0.00325235	
0.001035	0.00260821	
0.00104	0.00191753	
0.001045	0.00118131	
0.00105	0.000449864	
0.001055	-0.000291361	
0.00106	-0.00109905	
0.001065	-0.00191236	
0.00107	-0.00259584	
0.001075	-0.00316138	
0.00108	-0.00371749	
0.001085	-0.00428861	
0.00109	-0.00489016	
0.001095	-0.00553084	
0.0011	-0.00616703	
0.001105	-0.0068177	
0.00111	-0.00749467	
0.001115	-0.00815698	
0.00112	-0.00877828	
0.001125	-0.0093907	
0.00113	-0.0100634	
0.001135	-0.0107915	
0.00114	-0.0115692	
0.001145	-0.0123905	
0.00115	-0.0132016	
0.001155	-0.0140151	
0.00116	-0.0148394	
0.001165	-0.0155841	
0.00117	-0.0161462	
0.001175	-0.0165137	
0.00118	-0.016783	
0.001185	-0.01707	
0.00119	-0.0174025	
0.001195	-0.0177494	
0.0012	-0.0181368	
0.001205	-0.0185802	
0.00121	-0.0190396	
0.001215	-0.0195352	
0.00122	-0.0200789	
0.001225	-0.0206285	
0.00123	-0.0211085	
0.001235	-0.0214724	
0.00124	-0.0217901	
0.001245	-0.0221098	
0.00125	-0.0224156	
0.001255	-0.022698	
0.00126	-0.0229514	
0.001265	-0.0231738	
0.00127	-0.0233652	
0.001275	-0.0235747	
0.00128	-0.0239288	
0.001285	-0.024409	
0.00129	-0.0248546	
0.001295	-0.0252087	
0.0013	-0.0254858	
0.001305	-0.0257466	
0.00131	-0.0260317	
0.001315	-0.026272	
0.00132	-0.0264237	
0.001325	-0.0265574	
0.00133	-0.0267204	
0.001335	-0.0268951	
0.00134	-0.0270692	
0.001345	-0.0272347	
0.00135	-0.0273866	
0.001355	-0.0275225	
0.00136	-0.0276413	
0.001365	-0.0277432	
0.00137	-0.0278293	
0.001375	-0.0279007	
0.00138	-0.0279592	
0.001385	-0.0280063	
0.00139	-0.0280438	
0.001395	-0.028073	
0.0014	-0.0280955	
0.001405	-0.0281125	
0.00141	-0.028125	
0.001415	-0.028134	
0.00142	-0.0281403	
0.001425	-0.0281444	
0.00143	-0.0280994	
0.001435	-0.0279767	
0.00144	-0.0278559	
0.001445	-0.0277423	
0.00145	-0.0275436	
0.001455	-0.0272506	
0.00146	-0.0269095	
0.001465	-0.0265526	
0.00147	-0.0262023	
0.001475	-0.0258729	
0.00148	-0.0255728	
0.001485	-0.0253062	
0.00149	-0.0249793	
0.001495	-0.024533	
0.0015	-0.0240767	
0.001505	-0.0235877	
0.00151	-0.0229578	
0.001515	-0.0221696	
0.00152	-0.0211718	
0.001525	-0.0197502	
0.00153	-0.017641	
0.001535	-0.0148931	
0.00154	-0.0117589	
0.001545	-0.00842323	
0.00155	-0.00501735	
0.001555	-0.00163123	
0.00156	0.00167678	
0.001565	0.00487191	
0.00157	0.00793654	
0.001575	0.0108653	
0.00158	0.0136134	
0.001585	0.01616	
0.00159	0.0185959	
0.001595	0.0209862	
0.0016	0.0232808	
0.001605	0.0254515	
0.00161	0.0275328	
0.001615	0.0295993	
0.00162	0.031701	
0.001625	0.0337264	
0.00163	0.0356058	
0.001635	0.037395	
0.00164	0.0390878	
0.001645	0.0406843	
0.00165	0.042237	
0.001655	0.0437349	
0.00166	0.0451734	
0.001665	0.0465996	
0.00167	0.047998	
0.001675	0.0493117	
0.00168	0.0505551	
0.001685	0.0517884	
0.00169	0.0530518	
0.001695	0.0543702	
0.0017	0.0557102	
0.001705	0.0570011	
0.00171	0.0582459	
0.001715	0.0595442	
0.00172	0.0609114	
0.001725	0.0622119	
0.00173	0.0634068	
0.001735	0.0645706	
0.00174	0.0657065	
0.001745	0.0667702	
0.00175	0.0677361	
0.001755	0.0686392	
0.00176	0.0695533	
0.001765	0.0704791	
0.00177	0.0713686	
0.001775	0.0722398	
0.00178	0.0731052	
0.001785	0.0738783	
0.00179	0.074554	
0.001795	0.0752286	
0.0018	0.075918	
0.001805	0.0766322	
0.00181	0.0773765	
0.001815	0.0780579	
0.00182	0.0786656	
0.001825	0.079291	
0.00183	0.079946	
0.001835	0.0805896	
0.00184	0.0811952	
0.001845	0.0816997	
0.00185	0.0820659	
0.001855	0.0823238	
0.00186	0.0824505	
0.001865	0.0824371	
0.00187	0.082332	
0.001875	0.0821715	
0.00188	0.0819819	
0.001885	0.0818297	
0.00189	0.0818045	
0.001895	0.0818641	
0.0019	0.0818818	
0.001905	0.081871	
0.00191	0.0818895	
0.001915	0.0818788	
0.00192	0.0818495	
0.001925	0.0819043	
0.00193	0.082012	
0.001935	0.0820544	
0.00194	0.0820517	
0.001945	0.082067	
0.00195	0.0820459	
0.001955	0.0819067	
0.00196	0.0816486	
0.001965	0.0813245	
0.00197	0.0809245	
0.001975	0.0804459	
0.00198	0.0799857	
0.001985	0.0796069	
0.00199	0.0792521	
0.001995	0.0788824	
0.002	0.0785204	
0.002005	0.0781806	
0.00201	0.0778239	
0.002015	0.0773779	
0.00202	0.0768466	
0.002025	0.0763317	
0.00203	0.0758995	
0.002035	0.0754948	
0.00204	0.0750322	
0.002045	0.0744583	
0.00205	0.0737906	
0.002055	0.0730926	
0.00206	0.0723602	
0.002065	0.0715446	
0.00207	0.0706652	
0.002075	0.0697853	
0.00208	0.0689468	
0.002085	0.0681276	
0.00209	0.0672649	
0.002095	0.0663667	
0.0021	0.0654876	
0.002105	0.0646627	
0.00211	0.063865	
0.002115	0.0630278	
0.00212	0.0621568	
0.002125	0.0613046	
0.00213	0.0604576	
0.002135	0.059559	
0.00214	0.0586213	
0.002145	0.0577023	
0.00215	0.056839	
0.002155	0.0560057	
0.00216	0.0551366	
0.002165	0.0542374	
0.00217	0.0533134	
0.002175	0.0523217	
0.00218	0.0512846	
0.002185	0.0502668	
0.00219	0.0493097	
0.002195	0.0483905	
0.0022	0.0474446	
0.002205	0.0465258	
0.00221	0.0456684	
0.002215	0.0447495	
0.00222	0.0437383	
0.002225	0.0427141	
0.00223	0.0417298	
0.002235	0.0407708	
0.00224	0.0398264	
0.002245	0.0389362	
0.00225	0.0380763	
0.002255	0.037182	
0.00226	0.0362598	
0.002265	0.0353628	
0.00227	0.0344774	
0.002275	0.0335938	
0.00228	0.0327058	
0.002285	0.0317618	
0.00229	0.0307779	
0.002295	0.0298143	
0.0023	0.0288622	
0.002305	0.0279151	
0.00231	0.027016	
0.002315	0.0261437	
0.00232	0.0252827	
0.002325	0.0244224	
0.00233	0.0235081	
0.002335	0.0225064	
0.00234	0.021447	
0.002345	0.0203996	
0.00235	0.019362	
0.002355	0.0183326	
0.00236	0.0173572	
0.002365	0.016416	
0.00237	0.0154943	
0.002375	0.0146292	
0.00238	0.0137946	
0.002385	0.0129722	
0.00239	0.0121491	
0.002395	0.011317	
0.0024	0.0105183	
0.002405	0.00973188	
0.00241	0.0089432	
0.002415	0.0081428	
0.00242	0.007325	
0.002425	0.0065344	
0.00243	0.00579914	
0.002435	0.00513513	
0.00244	0.00450198	
0.002445	0.00387158	
0.00245	0.00322528	
0.002455	0.00255152	
0.00246	0.00174893	
0.002465	0.000709209	
0.00247	-0.000342616	
0.002475	-0.00121007	
0.00248	-0.00191492	
0.002485	-0.00252677	
0.00249	-0.00314343	
0.002495	-0.00382915	
0.0025	-0.00462306	
0.002505	-0.00549829	
0.00251	-0.00638573	
0.002515	-0.00719171	
0.00252	-0.00785834	
0.002525	-0.00844908	
0.00253	-0.00905692	
0.002535	-0.00974235	
0.00254	-0.0104941	
0.002545	-0.0112539	
0.00255	-0.0119832	
0.002555	-0.0126578	
0.00256	-0.0132645	
0.002565	-0.0138453	
0.00257	-0.0144765	
0.002575	-0.0151587	
0.00258	-0.0157947	
0.002585	-0.0163226	
0.00259	-0.0167543	
0.002595	-0.0171022	
0.0026	-0.0174258	
0.002605	-0.0177657	
0.00261	-0.0181002	
0.002615	-0.0184154	
0.00262	-0.0187504	
0.002625	-0.0191303	
0.00263	-0.0194741	
0.002635	-0.019778	
0.00264	-0.0200887	
0.002645	-0.0203892	
0.00265	-0.0206687	
0.002655	-0.0208737	
0.00266	-0.0210198	
0.002665	-0.0212153	
0.00267	-0.0214816	
0.002675	-0.021782	
0.00268	-0.0221382	
0.002685	-0.0225619	
0.00269	-0.0229625	
0.002695	-0.0232814	
0.0027	-0.0235314	
0.002705	-0.0237241	
0.00271	-0.0238699	
0.002715	-0.0239779	
0.00272	-0.0241034	
0.002725	-0.024282	
0.00273	-0.0244397	
0.002735	-0.0245761	
0.00274	-0.0247395	
0.002745	-0.0249131	
0.00275	-0.0250852	
0.002755	-0.0252005	
0.00276	-0.025273	
0.002765	-0.0253614	
0.00277	-0.025456	
0.002775	-0.0255979	
0.00278	-0.0257642	
0.002785	-0.0258911	
0.00279	-0.0260337	
0.002795	-0.0261798	
0.0028	-0.0262738	
0.002805	-0.0263766	
0.00281	-0.0264803	
0.002815	-0.0265321	
0.00282	-0.0265472	
0.002825	-0.02649	
0.00283	-0.0263402	
0.002835	-0.0261364	
0.00284	-0.0259543	
0.002845	-0.0258425	
0.00285	-0.0257349	
0.002855	-0.0255876	
0.00286	-0.0254211	
0.002865	-0.0252498	
0.00287	-0.0250835	
0.002875	-0.0249283	
0.00288	-0.0247402	
0.002885	-0.0244918	
0.00289	-0.0242154	
0.002895	-0.0238861	
0.0029	-0.0235374	
0.002905	-0.02324	
0.00291	-0.022943	
0.002915	-0.0226127	
0.00292	-0.0222286	
0.002925	-0.0217796	
0.00293	-0.0213566	
0.002935	-0.0209708	
0.00294	-0.0204851	
0.002945	-0.0197663	
0.00295	-0.0187854	
0.002955	-0.0174402	
0.00296	-0.0154907	
0.002965	-0.0129498	
0.00297	-0.0100915	
0.002975	-0.00711168	
0.00298	-0.00405001	
0.002985	-0.000936585	
0.00299	0.00211123	
0.002995	0.00501918	
0.003	0.00779243	
0.003005	0.0104408	
0.00301	0.0129766	
0.003015	0.0154133	
0.00302	0.0177645	
0.003025	0.0200432	
0.00303	0.0222614	
0.003035	0.0244299	
0.00304	0.026558	
0.003045	0.0286065	
0.00305	0.0305055	
0.003055	0.0322637	
0.00306	0.033941	
0.003065	0.0355332	
0.00307	0.0370414	
0.003075	0.038518	
0.00308	0.0399515	
0.003085	0.0413363	
0.00309	0.0427185	
0.003095	0.0440812	
0.0031	0.0454142	
0.003105	0.046712	
0.00311	0.0479252	
0.003115	0.0490728	
0.00312	0.0501705	
0.003125	0.0512307	
0.00313	0.0522638	
0.003135	0.0531825	
0.00314	0.0539823	
0.003145	0.054761	
0.00315	0.0555841	
0.003155	0.0564925	
0.00316	0.0574617	
0.003165	0.0584252	
0.00317	0.0593394	
0.003175	0.0601778	
0.00318	0.0609741	
0.003185	0.0618001	
0.00319	0.0626541	
0.003195	0.0634862	
0.0032	0.0642645	
0.003205	0.0649705	
0.00321	0.0655955	
0.003215	0.0661374	
0.00322	0.066599	
0.003225	0.0669858	
0.00323	0.0673049	
0.003235	0.0676119	
0.00324	0.0679915	
0.003245	0.0684484	
0.00325	0.0689823	
0.003255	0.0695893	
0.00326	0.0701682	
0.003265	0.0706536	
0.00327	0.0710544	
0.003275	0.071333	
0.00328	0.0714703	
0.003285	0.0715555	
0.00329	0.0716022	
0.003295	0.0715739	
0.0033	0.0715449	
0.003305	0.0715645	
0.00331	0.0716151	
0.003315	0.0716838	
0.00332	0.0717136	
0.003325	0.0716689	
0.00333	0.0716246	
0.003335	0.0716303	
0.00334	0.0716686	
0.003345	0.0716792	
0.00335	0.0716233	
0.003355	0.0715264	
0.00336	0.0713593	
0.003365	0.0711065	
0.00337	0.070809	
0.003375	0.0704962	
0.00338	0.070188	
0.003385	0.0698975	
0.00339	0.0695848	
0.003395	0.0691773	
0.0034	0.0686789	
0.003405	0.0681442	
0.00341	0.0676108	
0.003415	0.0671036	
0.00342	0.0665901	
0.003425	0.0660491	
0.00343	0.0655156	
0.003435	0.0649648	
0.00344	0.0643811	
0.003445	0.0638032	
0.00345	0.0632566	
0.003455	0.0627564	
0.00346	0.062263	
0.003465	0.0617023	
0.00347	0.0610762	
0.003475	0.0604366	
0.00348	0.0598183	
0.003485	0.0591959	
0.00349	0.058505	
0.003495	0.0577066	
0.0035	0.0568276	
0.003505	0.0559845	
0.00351	0.055205	
0.003515	0.0544092	
0.00352	0.0535928	
0.003525	0.0528013	
0.00353	0.0520163	
0.003535	0.0511775	
0.00354	0.0502955	
0.003545	0.049379	
0.00355	0.0484358	
0.003555	0.0475194	
0.00356	0.0466166	
0.003565	0.0457179	
0.00357	0.0448169	
0.003575	0.0438619	
0.00358	0.0428689	
0.003585	0.0418979	
0.00359	0.0409872	
0.003595	0.0401119	
0.0036	0.0392063	
0.003605	0.0382759	
0.00361	0.0373733	
0.003615	0.036484	
0.00362	0.0355982	
0.003625	0.034804	
0.00363	0.0341078	
0.003635	0.033414	
0.00364	0.0327072	
0.003645	0.0319776	
0.00365	0.0311725	
0.003655	0.0303082	
0.00366	0.0294456	
0.003665	0.028625	
0.00367	0.0278233	
0.003675	0.026977	
0.00368	0.0260938	
0.003685	0.025228	
0.00369	0.024367	
0.003695	0.023455	
0.0037	0.0225048	
0.003705	0.0215745	
0.00371	0.0207012	
0.003715	0.0198594	
0.00372	0.0189829	
0.003725	0.0180776	
0.00373	0.0171961	
0.003735	0.0163245	
0.00374	0.015453	
0.003745	0.0146229	
0.00375	0.0138117	
0.003755	0.0130039	
0.00376	0.0122365	
0.003765	0.011532	
0.00377	0.0108549	
0.003775	0.0101327	
0.00378	0.00936736	
0.003785	0.00860985	
0.00379	0.00784577	
0.003795	0.00701843	
0.0038	0.00614097	
0.003805	0.00527197	
0.00381	0.00444965	
0.003815	0.003697	
0.00382	0.00302589	
0.003825	0.00239274	
0.00383	0.0017195	
0.003835	0.00100414	
0.00384	0.00029483	
0.003845	-0.000376932	
0.00385	-0.0010397	
0.003855	-0.00176027	
0.00386	-0.00253239	
0.003865	-0.003302	
0.00387	-0.00403354	
0.003875	-0.00475291	
0.00388	-0.00547778	
0.003885	-0.00612445	
0.00389	-0.00668897	
0.003895	-0.0072677	
0.0039	-0.00787596	
0.003905	-0.00847493	
0.00391	-0.00899189	
0.003915	-0.00943034	
0.00392	-0.0099389	
0.003925	-0.0105647	
0.00393	-0.0112382	
0.003935	-0.0119113	
0.00394	-0.0125523	
0.003945	-0.0131418	
0.00395	-0.0136694	
0.003955	-0.0141314	
0.00396	-0.0145757	
0.003965	-0.0150824	
0.00397	-0.0156539	
0.003975	-0.016241	
0.00398	-0.0168106	
0.003985	-0.0173418	
0.00399	-0.0178225	
0.003995	-0.0182472	
0.004	-0.0186149	
0.004005	-0.0189751	
0.00401	-0.0194085	
0.004015	-0.0199171	
0.00402	-0.0204512	
0.004025	-0.020977	
0.00403	-0.0214248	
0.004035	-0.0217525	
0.00404	-0.022033	
0.004045	-0.0223167	
0.00405	-0.0225891	
0.004055	-0.0228411	
0.00406	-0.0230678	
0.004065	-0.0232671	
0.00407	-0.0234388	
0.004075	-0.0236318	
0.00408	-0.0239248	
0.004085	-0.0243174	
0.00409	-0.0247571	
0.004095	-0.0251595	
0.0041	-0.0254708	
0.004105	-0.0257547	
0.00411	-0.0260548	
0.004115	-0.0263513	
0.00412	-0.0266315	
0.004125	-0.0268876	
0.00413	-0.0271157	
0.004135	-0.0273146	
0.00414	-0.0274848	
0.004145	-0.027628	
0.00415	-0.0277467	
0.004155	-0.0278436	
0.00416	-0.0279216	
0.004165	-0.0279833	
0.00417	-0.0280315	
0.004175	-0.0280684	
0.00418	-0.0280962	
0.004185	-0.0281166	
0.00419	-0.0281312	
0.004195	-0.0281413	
0.0042	-0.0281954	
0.004205	-0.0283236	
0.00421	-0.028447	
0.004215	-0.0284664	
0.00422	-0.0283686	
0.004225	-0.0281984	
0.00423	-0.0279407	
0.004235	-0.0275902	
0.00424	-0.0272425	
0.004245	-0.0270082	
0.00425	-0.0268598	
0.004255	-0.0267274	
0.00426	-0.0266594	
0.004265	-0.0266371	
0.00427	-0.0265985	
0.004275	-0.0265033	
0.00428	-0.0262804	
0.004285	-0.0259837	
0.00429	-0.0256524	
0.004295	-0.0251714	
0.0043	-0.0244718	
0.004305	-0.0236136	
0.00431	-0.0224063	
0.004315	-0.0204554	
0.00432	-0.0177738	
0.004325	-0.0145946	
0.00433	-0.0110951	
0.004335	-0.00745484	
0.00434	-0.00375137	
0.004345	-3.87628E-5	
0.00435	0.0035518	
0.004355	0.00693961	
0.00436	0.0101286	
0.004365	0.0130831	
0.00437	0.0157909	
0.004375	0.0183505	
0.00438	0.020834	
0.004385	0.0231973	
0.00439	0.0254172	
0.004395	0.0275326	
0.0044	0.029574	
0.004405	0.0315653	
0.00441	0.0334768	
0.004415	0.0352929	
0.00442	0.0370552	
0.004425	0.0387462	
0.00443	0.0403578	
0.004435	0.0419359	
0.00444	0.0435123	
0.004445	0.0451081	
0.00445	0.0467363	
0.004455	0.0484039	
0.00446	0.0500661	
0.004465	0.0516938	
0.00447	0.0533167	
0.004475	0.0548597	
0.00448	0.0562295	
0.004485	0.0574679	
0.00449	0.0586562	
0.004495	0.0598502	
0.0045	0.0610391	
0.004505	0.0621684	
0.00451	0.0632049	
0.004515	0.0641314	
0.00452	0.0649889	
0.004525	0.0658554	
0.00453	0.0667345	
0.004535	0.0676279	
0.00454	0.0685834	
0.004545	0.0695823	
0.00455	0.0705625	
0.004555	0.071484	
0.00456	0.0723708	
0.004565	0.0732878	
0.00457	0.074229	
0.004575	0.0751415	
0.00458	0.0759919	
0.004585	0.0767613	
0.00459	0.0774407	
0.004595	0.0780763	
0.0046	0.078748	
0.004605	0.0794592	
0.00461	0.0801629	
0.004615	0.0808283	
0.00462	0.0814846	
0.004625	0.0821513	
0.00463	0.0827458	
0.004635	0.0832646	
0.00464	0.0838041	
0.004645	0.0843316	
0.00465	0.0847312	
0.004655	0.0850276	
0.00466	0.0853846	
0.004665	0.0858596	
0.00467	0.0863425	
0.004675	0.0867602	
0.00468	0.0871152	
0.004685	0.087412	
0.00469	0.0876564	
0.004695	0.0878547	
0.0047	0.0879658	
0.004705	0.0879189	
0.00471	0.0877226	
0.004715	0.0874846	
0.00472	0.0873254	
0.004725	0.0872733	
0.00473	0.0872942	
0.004735	0.0873148	
0.00474	0.0872866	
0.004745	0.0872276	
0.00475	0.0871035	
0.004755	0.0868949	
0.00476	0.0866404	
0.004765	0.0864152	
0.00477	0.0862675	
0.004775	0.0861304	
0.00478	0.0859592	
0.004785	0.0857736	
0.00479	0.0855873	
0.004795	0.0853619	
0.0048	0.0850261	
0.004805	0.0845861	
0.00481	0.084098	
0.004815	0.0835539	
0.00482	0.0829034	
0.004825	0.0822136	
0.00483	0.0815781	
0.004835	0.0809133	
0.00484	0.080118	
0.004845	0.0792743	
0.00485	0.0784862	
0.004855	0.0777244	
0.00486	0.0769209	
0.004865	0.0760805	
0.00487	0.0752554	
0.004875	0.0744319	
0.00488	0.0736009	
0.004885	0.0727567	
0.00489	0.0718486	
0.004895	0.0708939	
0.0049	0.0699536	
0.004905	0.0690672	
0.00491	0.0682107	
0.004915	0.0673195	
0.00492	0.0664	
0.004925	0.0655052	
0.00493	0.0646216	
0.004935	0.0636921	
0.00494	0.0627287	
0.004945	0.061741	
0.00495	0.0607365	
0.004955	0.0597684	
0.00496	0.0588225	
0.004965	0.0578886	
0.00497	0.0570066	
0.004975	0.0561531	
0.00498	0.0552637	
0.004985	0.0543451	
0.00499	0.0534032	
0.004995	0.052443	
0.005	0.051516	
0.005005	0.0506073	
0.00501	0.0496586	
0.005015	0.0486333	
0.00502	0.0475585	
0.005025	0.0465018	
0.00503	0.0454595	
0.005035	0.044381	
0.00504	0.043282	
0.005045	0.042174	
0.00505	0.0410174	
0.005055	0.0398359	
0.00506	0.0386938	
