Time - Plot 0	Amplitude - Plot 0	
0	0.0371909	
5E-6	0.0365387	
1E-5	0.0359016	
1.5E-5	0.0352571	
2E-5	0.0345431	
2.5E-5	0.0337695	
3E-5	0.0330407	
3.5E-5	0.0324235	
4E-5	0.0318615	
4.5E-5	0.031315	
5E-5	0.0308045	
5.5E-5	0.030342	
6E-5	0.0298853	
6.5E-5	0.0293591	
7E-5	0.0287644	
7.5E-5	0.0281526	
8E-5	0.0275586	
8.5E-5	0.0269567	
9E-5	0.0263307	
9.5E-5	0.0257183	
0.0001	0.0250964	
0.000105	0.02445	
0.00011	0.0238181	
0.000115	0.0232256	
0.00012	0.0226872	
0.000125	0.0222098	
0.00013	0.0217478	
0.000135	0.0212226	
0.00014	0.0206331	
0.000145	0.0200291	
0.00015	0.0194441	
0.000155	0.0188518	
0.00016	0.0181875	
0.000165	0.0174597	
0.00017	0.0167245	
0.000175	0.0160191	
0.00018	0.0153668	
0.000185	0.0147328	
0.00019	0.0140933	
0.000195	0.0134804	
0.0002	0.0128665	
0.000205	0.0122335	
0.00021	0.0116178	
0.000215	0.0110426	
0.00022	0.0105213	
0.000225	0.0100603	
0.00023	0.00961324	
0.000235	0.00910147	
0.00024	0.0085237	
0.000245	0.00792974	
0.00025	0.0073532	
0.000255	0.00676788	
0.00026	0.00610938	
0.000265	0.00543378	
0.00027	0.0048264	
0.000275	0.00424518	
0.00028	0.00366117	
0.000285	0.00310294	
0.00029	0.00258812	
0.000295	0.00212626	
0.0003	0.00172117	
0.000305	0.00132513	
0.00031	0.00090626	
0.000315	0.000539681	
0.00032	0.000272454	
0.000325	3.58381E-5	
0.00033	-0.000264474	
0.000335	-0.000640115	
0.00034	-0.00104766	
0.000345	-0.00145696	
0.00035	-0.00184806	
0.000355	-0.00220866	
0.00036	-0.0025321	
0.000365	-0.00286327	
0.00037	-0.00313634	
0.000375	-0.00326311	
0.00038	-0.00343004	
0.000385	-0.00380569	
0.00039	-0.00434873	
0.000395	-0.0049289	
0.0004	-0.00550613	
0.000405	-0.00614919	
0.00041	-0.00680523	
0.000415	-0.00734373	
0.00042	-0.00773173	
0.000425	-0.00804968	
0.00043	-0.00840148	
0.000435	-0.00880649	
0.00044	-0.00922742	
0.000445	-0.00963895	
0.00045	-0.0100248	
0.000455	-0.0103755	
0.00046	-0.0106864	
0.000465	-0.0109564	
0.00047	-0.0112342	
0.000475	-0.011599	
0.00048	-0.0120039	
0.000485	-0.0123212	
0.00049	-0.0125655	
0.000495	-0.0128453	
0.0005	-0.0131828	
0.000505	-0.0135424	
0.00051	-0.0138995	
0.000515	-0.0142382	
0.00052	-0.0145486	
0.000525	-0.0148257	
0.00053	-0.0150677	
0.000535	-0.0152752	
0.00054	-0.0154501	
0.000545	-0.0155953	
0.00055	-0.0157139	
0.000555	-0.0158094	
0.00056	-0.0159328	
0.000565	-0.0161162	
0.00057	-0.0163305	
0.000575	-0.0166501	
0.00058	-0.0171191	
0.000585	-0.0175693	
0.00059	-0.0178433	
0.000595	-0.0179881	
0.0006	-0.018136	
0.000605	-0.0182788	
0.00061	-0.0183166	
0.000615	-0.0182832	
0.00062	-0.0182521	
0.000625	-0.018224	
0.00063	-0.0181991	
0.000635	-0.0181776	
0.00064	-0.0181592	
0.000645	-0.0181439	
0.00065	-0.0181313	
0.000655	-0.018121	
0.00066	-0.0181603	
0.000665	-0.018278	
0.00067	-0.0183943	
0.000675	-0.0184566	
0.00068	-0.0185279	
0.000685	-0.0186017	
0.00069	-0.0186262	
0.000695	-0.018617	
0.0007	-0.0185385	
0.000705	-0.0183705	
0.00071	-0.0181514	
0.000715	-0.0179565	
0.00072	-0.0178344	
0.000725	-0.0177184	
0.00073	-0.0175645	
0.000735	-0.0173928	
0.00074	-0.01717	
0.000745	-0.0168289	
0.00075	-0.0164261	
0.000755	-0.0160965	
0.00076	-0.0158785	
0.000765	-0.0157443	
0.00077	-0.0156717	
0.000775	-0.0156432	
0.00078	-0.015645	
0.000785	-0.0156193	
0.00079	-0.0154816	
0.000795	-0.0152289	
0.0008	-0.0149125	
0.000805	-0.0145689	
0.00081	-0.0142238	
0.000815	-0.0138939	
0.00082	-0.0135896	
0.000825	-0.0133167	
0.00083	-0.0130298	
0.000835	-0.0126521	
0.00084	-0.0122325	
0.000845	-0.0118527	
0.00085	-0.0115169	
0.000855	-0.0112262	
0.00086	-0.0109314	
0.000865	-0.0106002	
0.00087	-0.0102133	
0.000875	-0.00971275	
0.00088	-0.00897087	
0.000885	-0.00781975	
0.00089	-0.00631062	
0.000895	-0.00458929	
0.0009	-0.00266686	
0.000905	-0.00056015	
0.00091	0.00166349	
0.000915	0.00395412	
0.00092	0.00627566	
0.000925	0.00860284	
0.00093	0.0109187	
0.000935	0.0132127	
0.00094	0.0154313	
0.000945	0.0175428	
0.00095	0.0195788	
0.000955	0.0215639	
0.00096	0.0236592	
0.000965	0.0259182	
0.00097	0.0280356	
0.000975	0.0298645	
0.00098	0.0315118	
0.000985	0.0330564	
0.00099	0.0345553	
0.000995	0.0360008	
0.001	0.0373902	
0.001005	0.038772	
0.00101	0.0401785	
0.001015	0.0416298	
0.00102	0.0430896	
0.001025	0.0444859	
0.00103	0.0458218	
0.001035	0.0471498	
0.00104	0.0484573	
0.001045	0.0496895	
0.00105	0.0508137	
0.001055	0.0519086	
0.00106	0.053075	
0.001065	0.054281	
0.00107	0.0555035	
0.001075	0.0567266	
0.00108	0.0578447	
0.001085	0.0587933	
0.00109	0.0596326	
0.001095	0.0604078	
0.0011	0.0611516	
0.001105	0.0619345	
0.00111	0.0627538	
0.001115	0.0635583	
0.00112	0.0643149	
0.001125	0.0650043	
0.00113	0.0656167	
0.001135	0.0661493	
0.00114	0.0666518	
0.001145	0.0672056	
0.00115	0.0678146	
0.001155	0.0684312	
0.00116	0.0690237	
0.001165	0.0695723	
0.00117	0.0700659	
0.001175	0.0705475	
0.00118	0.0710934	
0.001185	0.0717035	
0.00119	0.0723271	
0.001195	0.07293	
0.0012	0.0734908	
0.001205	0.0739973	
0.00121	0.074444	
0.001215	0.0748302	
0.00122	0.0751583	
0.001225	0.0754325	
0.00123	0.0756581	
0.001235	0.0757936	
0.00124	0.0758157	
0.001245	0.0758095	
0.00125	0.0758325	
0.001255	0.0758737	
0.00126	0.0759248	
0.001265	0.0759327	
0.00127	0.075864	
0.001275	0.0757957	
0.00128	0.0757784	
0.001285	0.0757955	
0.00129	0.075787	
0.001295	0.0757145	
0.0013	0.0756507	
0.001305	0.0756432	
0.00131	0.0756732	
0.001315	0.075679	
0.00132	0.0755734	
0.001325	0.0753519	
0.00133	0.0750645	
0.001335	0.0746996	
0.00134	0.0742533	
0.001345	0.0738221	
0.00135	0.0734212	
0.001355	0.0730116	
0.00136	0.0726634	
0.001365	0.0723719	
0.00137	0.0720367	
0.001375	0.0716409	
0.00138	0.0711763	
0.001385	0.0706409	
0.00139	0.070084	
0.001395	0.0695394	
0.0014	0.0690286	
0.001405	0.0685167	
0.00141	0.0679807	
0.001415	0.0674543	
0.00142	0.0669115	
0.001425	0.0662885	
0.00143	0.0655946	
0.001435	0.0648867	
0.00144	0.0642031	
0.001445	0.0635678	
0.00145	0.0629945	
0.001455	0.062489	
0.00146	0.0620048	
0.001465	0.0614624	
0.00147	0.0608597	
0.001475	0.0602457	
0.00148	0.0596059	
0.001485	0.0588842	
0.00149	0.0580951	
0.001495	0.0572989	
0.0015	0.0565356	
0.001505	0.0558302	
0.00151	0.0551488	
0.001515	0.0544203	
0.00152	0.0536002	
0.001525	0.0526634	
0.00153	0.0516464	
0.001535	0.0506247	
0.00154	0.0496481	
0.001545	0.0487476	
0.00155	0.0477971	
0.001555	0.046716	
0.00156	0.0456951	
0.001565	0.0448572	
0.00157	0.0441796	
0.001575	0.0435921	
0.00158	0.0430444	
0.001585	0.0425013	
0.00159	0.0418917	
0.001595	0.0412197	
0.0016	0.0405383	
0.001605	0.0398354	
0.00161	0.0390565	
0.001615	0.0382168	
0.00162	0.0373767	
0.001625	0.0365761	
0.00163	0.0357918	
0.001635	0.0350079	
0.00164	0.0342613	
0.001645	0.0335747	
0.00165	0.03296	
0.001655	0.0323267	
0.00166	0.0315686	
0.001665	0.0307165	
0.00167	0.0298427	
0.001675	0.0289959	
0.00168	0.0281594	
0.001685	0.0272743	
0.00169	0.0263514	
0.001695	0.0254472	
0.0017	0.0245982	
0.001705	0.0238256	
0.00171	0.0231401	
0.001715	0.0225443	
0.00172	0.0220359	
0.001725	0.0215616	
0.00173	0.0210371	
0.001735	0.0204569	
0.00174	0.0198198	
0.001745	0.0191278	
0.00175	0.0184323	
0.001755	0.0176724	
0.00176	0.0168108	
0.001765	0.0159705	
0.00177	0.0152316	
0.001775	0.0145468	
0.00178	0.0138351	
0.001785	0.0130917	
0.00179	0.0123627	
0.001795	0.0116775	
0.0018	0.0110538	
0.001805	0.0104999	
0.00181	0.00997091	
0.001815	0.00938818	
0.00182	0.00875006	
0.001825	0.0081056	
0.00183	0.00748745	
0.001835	0.00691587	
0.00184	0.00635451	
0.001845	0.00573136	
0.00185	0.00490681	
0.001855	0.00384585	
0.00186	0.00282181	
0.001865	0.00201315	
0.00187	0.00133721	
0.001875	0.000685686	
0.00188	8.10681E-5	
0.001885	-0.000416488	
0.00189	-0.000867456	
0.001895	-0.00131391	
0.0019	-0.00173627	
0.001905	-0.00217031	
0.00191	-0.00263905	
0.001915	-0.00306097	
0.00192	-0.00343206	
0.001925	-0.00384715	
0.00193	-0.00431916	
0.001935	-0.00480638	
0.00194	-0.00528057	
0.001945	-0.00572375	
0.00195	-0.00617306	
0.001955	-0.00665269	
0.00196	-0.00708209	
0.001965	-0.00741053	
0.00197	-0.0077044	
0.001975	-0.00805665	
0.00198	-0.00847827	
0.001985	-0.00892568	
0.00199	-0.00932141	
0.001995	-0.0096168	
0.002	-0.0098796	
0.002005	-0.010156	
0.00201	-0.0104283	
0.002015	-0.0106851	
0.00202	-0.0109194	
0.002025	-0.0111279	
0.00203	-0.0113094	
0.002035	-0.0114646	
0.00204	-0.0115952	
0.002045	-0.0117983	
0.00205	-0.0121823	
0.002055	-0.0126674	
0.00206	-0.0131486	
0.002065	-0.0136046	
0.00207	-0.0140224	
0.002075	-0.0143476	
0.00208	-0.014549	
0.002085	-0.0147066	
0.00209	-0.0148755	
0.002095	-0.0150439	
0.0021	-0.0151564	
0.002105	-0.0151792	
0.00211	-0.0151893	
0.002115	-0.0152382	
0.00212	-0.0152626	
0.002125	-0.0152224	
0.00213	-0.0151414	
0.002135	-0.0150373	
0.00214	-0.015018	
0.002145	-0.0151506	
0.00215	-0.0153296	
0.002155	-0.0155306	
0.00216	-0.0157842	
0.002165	-0.016013	
0.00217	-0.016167	
0.002175	-0.0162645	
0.00218	-0.01632	
0.002185	-0.0163453	
0.00219	-0.0163495	
0.002195	-0.0163395	
0.0022	-0.0163206	
0.002205	-0.0162969	
0.00221	-0.0163185	
0.002215	-0.0164165	
0.00222	-0.0165128	
0.002225	-0.0165559	
0.00223	-0.0165618	
0.002235	-0.0165429	
0.00224	-0.0165085	
0.002245	-0.0164657	
0.00225	-0.0163716	
0.002255	-0.0161533	
0.00226	-0.0157681	
0.002265	-0.0151962	
0.00227	-0.0144332	
0.002275	-0.0133425	
0.00228	-0.011707	
0.002285	-0.00950457	
0.00229	-0.00688983	
0.002295	-0.00403184	
0.0023	-0.00105358	
0.002305	0.00191066	
0.00231	0.00477298	
0.002315	0.0075278	
0.00232	0.0101765	
0.002325	0.0127726	
0.00233	0.0153538	
0.002335	0.0178506	
0.00234	0.0202212	
0.002345	0.0224441	
0.00235	0.0244643	
0.002355	0.0263506	
0.00236	0.0282018	
0.002365	0.0299899	
0.00237	0.0316994	
0.002375	0.0333713	
0.00238	0.0350343	
0.002385	0.0367555	
0.00239	0.0385286	
0.002395	0.0402522	
0.0024	0.0419091	
0.002405	0.0434912	
0.00241	0.0449967	
0.002415	0.0464755	
0.00242	0.0479144	
0.002425	0.0493064	
0.00243	0.0506967	
0.002435	0.0520676	
0.00244	0.0534086	
0.002445	0.0547613	
0.00245	0.0561054	
0.002455	0.0573803	
0.00246	0.0585967	
0.002465	0.0597645	
0.00247	0.0608452	
0.002475	0.0618647	
0.00248	0.0628433	
0.002485	0.0637961	
0.00249	0.064782	
0.002495	0.0657905	
0.0025	0.0667662	
0.002505	0.0677218	
0.00251	0.0686664	
0.002515	0.069559	
0.00252	0.0704228	
0.002525	0.0712741	
0.00253	0.072077	
0.002535	0.0728101	
0.00254	0.0735574	
0.002545	0.0743738	
0.00255	0.0751498	
0.002555	0.0758623	
0.00256	0.0765467	
0.002565	0.0771804	
0.00257	0.0777506	
0.002575	0.0782995	
0.00258	0.0789034	
0.002585	0.0795627	
0.00259	0.0802272	
0.002595	0.0808637	
0.0026	0.0814517	
0.002605	0.0819799	
0.00261	0.0823961	
0.002615	0.0826713	
0.00262	0.0828881	
0.002625	0.0831035	
0.00263	0.0833079	
0.002635	0.0834954	
0.00264	0.0836153	
0.002645	0.0836375	
0.00265	0.0836417	
0.002655	0.0836813	
0.00266	0.0837425	
0.002665	0.083815	
0.00267	0.0838915	
0.002675	0.0839671	
0.00268	0.0840384	
0.002685	0.0841036	
0.00269	0.0841616	
0.002695	0.0842122	
0.0027	0.0842555	
0.002705	0.0842444	
0.00271	0.0841504	
0.002715	0.0840062	
0.00272	0.0837882	
0.002725	0.0835318	
0.00273	0.0831672	
0.002735	0.0826059	
0.00274	0.082084	
0.002745	0.0817079	
0.00275	0.0813982	
0.002755	0.0811468	
0.00276	0.0809459	
0.002765	0.0807876	
0.00277	0.0806175	
0.002775	0.0803526	
0.00278	0.0799901	
0.002785	0.0795804	
0.00279	0.0792066	
0.002795	0.0789215	
0.0028	0.0786135	
0.002805	0.0782098	
0.00281	0.0778096	
0.002815	0.0774307	
0.00282	0.0769886	
0.002825	0.0765734	
0.00283	0.0762906	
0.002835	0.0760133	
0.00284	0.0756103	
0.002845	0.0750483	
0.00285	0.0743605	
0.002855	0.0736224	
0.00286	0.072886	
0.002865	0.0721855	
0.00287	0.0714942	
0.002875	0.0707468	
0.00288	0.0699501	
0.002885	0.0691585	
0.00289	0.0684079	
0.002895	0.0676721	
0.0029	0.0668859	
0.002905	0.0660561	
0.00291	0.0652368	
0.002915	0.0644157	
0.00292	0.063537	
0.002925	0.0626146	
0.00293	0.0617068	
0.002935	0.0608992	
0.00294	0.0601958	
0.002945	0.0594994	
0.00295	0.0588404	
0.002955	0.0582374	
0.00296	0.0576047	
0.002965	0.0568872	
0.00297	0.0560528	
0.002975	0.0551807	
0.00298	0.0543725	
0.002985	0.0535972	
0.00299	0.0528326	
0.002995	0.0520639	
0.003	0.0512336	
0.003005	0.0503544	
0.00301	0.0494847	
0.003015	0.0486623	
0.00302	0.04791	
0.003025	0.0472395	
0.00303	0.0466546	
0.003035	0.0461064	
0.00304	0.0454656	
0.003045	0.0446515	
0.00305	0.043714	
0.003055	0.0427397	
0.00306	0.041787	
0.003065	0.0408937	
0.00307	0.0400343	
0.003075	0.0391428	
0.00308	0.0382247	
0.003085	0.0372851	
0.00309	0.0363281	
0.003095	0.0354525	
0.0031	0.0346719	
0.003105	0.0338959	
0.00311	0.0330645	
0.003115	0.0321408	
0.00312	0.0311524	
0.003125	0.0302157	
0.00313	0.0294524	
0.003135	0.028792	
0.00314	0.0280881	
0.003145	0.0273413	
0.00315	0.0265539	
0.003155	0.0257296	
0.00316	0.0248722	
0.003165	0.0239862	
0.00317	0.0231231	
0.003175	0.0222685	
0.00318	0.0214124	
0.003185	0.0205957	
0.00319	0.0197961	
0.003195	0.0189981	
0.0032	0.0182388	
0.003205	0.0175411	
0.00321	0.0169169	
0.003215	0.0163231	
0.00322	0.01573	
0.003225	0.0151654	
0.00323	0.0145987	
0.003235	0.0139624	
0.00324	0.0132628	
0.003245	0.0125544	
0.00325	0.0118739	
0.003255	0.0112914	
0.00326	0.0108486	
0.003265	0.0104239	
0.00327	0.00988844	
0.003275	0.00925785	
0.00328	0.00859435	
0.003285	0.00798806	
0.00329	0.0074957	
0.003295	0.00705421	
0.0033	0.00661962	
0.003305	0.00621012	
0.00331	0.005789	
0.003315	0.00528506	
0.00332	0.00465529	
0.003325	0.0039248	
0.00333	0.00320999	
0.003335	0.00253932	
0.00334	0.00188195	
0.003345	0.00126443	
0.00335	0.000654861	
0.003355	3.18317E-5	
0.00336	-0.000570605	
0.003365	-0.00113097	
0.00337	-0.00163709	
0.003375	-0.00208351	
0.00338	-0.00246945	
0.003385	-0.00279726	
0.00339	-0.00311877	
0.003395	-0.00346846	
0.0034	-0.00382019	
0.003405	-0.00420416	
0.00341	-0.00463876	
0.003415	-0.00518127	
0.00342	-0.00586432	
0.003425	-0.00651268	
0.00343	-0.00696488	
0.003435	-0.00726636	
0.00344	-0.00759681	
0.003445	-0.00807334	
0.00345	-0.00862365	
0.003455	-0.0091015	
0.00346	-0.00950897	
0.003465	-0.00994585	
0.00347	-0.010429	
0.003475	-0.0108722	
0.00348	-0.0112207	
0.003485	-0.0115377	
0.00349	-0.011914	
0.003495	-0.0123116	
0.0035	-0.012657	
0.003505	-0.0129991	
0.00351	-0.0133704	
0.003515	-0.0136959	
0.00352	-0.0139282	
0.003525	-0.0139455	
0.00353	-0.01363	
0.003535	-0.0132527	
0.00354	-0.0130426	
0.003545	-0.0129527	
0.00355	-0.0129938	
0.003555	-0.0131194	
0.00356	-0.0132471	
0.003565	-0.0133703	
0.00357	-0.0134846	
0.003575	-0.0136353	
0.00358	-0.0138502	
0.003585	-0.0140974	
0.00359	-0.0143542	
0.003595	-0.0146052	
0.0036	-0.0148404	
0.003605	-0.014864	
0.00361	-0.0145568	
0.003615	-0.0142362	
0.00362	-0.0141596	
0.003625	-0.014295	
0.00363	-0.0144687	
0.003635	-0.0145644	
0.00364	-0.0146517	
0.003645	-0.0147768	
0.00365	-0.0149209	
0.003655	-0.0150708	
0.00366	-0.0152174	
0.003665	-0.0153549	
0.00367	-0.0154798	
0.003675	-0.0155431	
0.00368	-0.0154676	
0.003685	-0.0153042	
0.00369	-0.0151856	
0.003695	-0.0151023	
0.0037	-0.0149509	
0.003705	-0.0147144	
0.00371	-0.014433	
0.003715	-0.0141352	
0.00372	-0.0138407	
0.003725	-0.0135623	
0.00373	-0.0133077	
0.003735	-0.0130809	
0.00374	-0.012883	
0.003745	-0.0127136	
0.00375	-0.0125711	
0.003755	-0.0124054	
0.00376	-0.0121847	
0.003765	-0.0119383	
0.00377	-0.011639	
0.003775	-0.0112714	
0.00378	-0.0108762	
0.003785	-0.0104815	
0.00379	-0.0100583	
0.003795	-0.00954116	
0.0038	-0.00893907	
0.003805	-0.00830943	
0.00381	-0.0076914	
0.003815	-0.00711027	
0.00382	-0.00653341	
0.003825	-0.00589158	
0.00383	-0.00518973	
0.003835	-0.00443398	
0.00384	-0.00358336	
0.003845	-0.00261534	
0.00385	-0.00152064	
0.003855	-0.000204047	
0.00386	0.00148179	
0.003865	0.00342643	
0.00387	0.00540218	
0.003875	0.00735254	
0.00388	0.00928899	
0.003885	0.0112197	
0.00389	0.0131505	
0.003895	0.015085	
0.0039	0.016978	
0.003905	0.0187541	
0.00391	0.0204166	
0.003915	0.0220208	
0.00392	0.0235581	
0.003925	0.0249785	
0.00393	0.0263024	
0.003935	0.0275949	
0.00394	0.0288533	
0.003945	0.0300295	
0.00395	0.031096	
0.003955	0.0320872	
0.00396	0.033077	
0.003965	0.0340666	
0.00397	0.0350567	
0.003975	0.0360955	
0.00398	0.0371647	
0.003985	0.0382034	
0.00399	0.039173	
0.003995	0.040051	
0.004	0.0408271	
0.004005	0.0414994	
0.00401	0.0421189	
0.004015	0.0427219	
0.00402	0.0432854	
0.004025	0.0438439	
0.00403	0.0444201	
0.004035	0.0449807	
0.00404	0.0455046	
0.004045	0.0459794	
0.00405	0.0463995	
0.004055	0.0467635	
0.00406	0.0470735	
0.004065	0.0473806	
0.00407	0.0477189	
0.004075	0.0480142	
0.00408	0.0482671	
0.004085	0.0485278	
0.00409	0.0487811	
0.004095	0.0490177	
0.0041	0.0493747	
0.004105	0.0499842	
0.00411	0.0506364	
0.004115	0.0511433	
0.00412	0.0515304	
0.004125	0.0517727	
0.00413	0.0518129	
0.004135	0.0516705	
0.00414	0.0514144	
0.004145	0.051143	
0.00415	0.0509219	
0.004155	0.0506968	
0.00416	0.0504323	
0.004165	0.0501543	
0.00417	0.0498804	
0.004175	0.0496224	
0.00418	0.0493869	
0.004185	0.0491774	
0.00419	0.0489951	
0.004195	0.0489342	
0.0042	0.0490515	
0.004205	0.0491855	
0.00421	0.0492293	
0.004215	0.0492114	
0.00422	0.0491537	
0.004225	0.0490249	
0.00423	0.0487604	
0.004235	0.0483713	
0.00424	0.0479184	
0.004245	0.0474449	
0.00425	0.0469803	
0.004255	0.0465434	
0.00426	0.0461455	
0.004265	0.0457922	
0.00427	0.0454373	
0.004275	0.0450032	
0.00428	0.0444424	
0.004285	0.0437769	
0.00429	0.0431214	
0.004295	0.0425987	
0.0043	0.0422357	
0.004305	0.0419476	
0.00431	0.0416275	
0.004315	0.041254	
0.00432	0.0408628	
0.004325	0.0404309	
0.00433	0.0398977	
0.004335	0.0392276	
0.00434	0.0384516	
0.004345	0.0376424	
0.00435	0.0368496	
0.004355	0.0361051	
0.00436	0.0353801	
0.004365	0.0346548	
0.00437	0.0339635	
0.004375	0.0332799	
0.00438	0.032586	
0.004385	0.0319183	
0.00439	0.0312994	
0.004395	0.0307419	
0.0044	0.0302513	
0.004405	0.0297804	
0.00441	0.0292498	
0.004415	0.0286574	
0.00442	0.0280046	
0.004425	0.0272479	
0.00443	0.0264585	
0.004435	0.0257799	
0.00444	0.0252539	
0.004445	0.0248536	
0.00445	0.0245074	
0.004455	0.0241182	
0.00446	0.0236241	
0.004465	0.022989	
0.00447	0.0222435	
0.004475	0.0214605	
0.00448	0.0206897	
0.004485	0.0199635	
0.00449	0.019301	
0.004495	0.0187119	
0.0045	0.0182465	
0.004505	0.0178848	
0.00451	0.0174659	
0.004515	0.0169815	
0.00452	0.0165244	
0.004525	0.0160595	
0.00453	0.0155162	
0.004535	0.014852	
0.00454	0.0140918	
0.004545	0.0133044	
0.00455	0.0125362	
0.004555	0.0118171	
0.00456	0.0111643	
0.004565	0.0105386	
0.00457	0.00991277	
0.004575	0.00931652	
0.00458	0.00867287	
0.004585	0.00793335	
0.00459	0.00721313	
0.004595	0.00658724	
0.0046	0.0060056	
0.004605	0.00543313	
0.00461	0.00484623	
0.004615	0.00423005	
0.00462	0.00367123	
0.004625	0.00317668	
0.00463	0.00270035	
0.004635	0.00225856	
0.00464	0.00181291	
0.004645	0.00133826	
0.00465	0.000866935	
0.004655	0.000372559	
0.00466	-0.000161167	
0.004665	-0.000648059	
0.00467	-0.00103351	
0.004675	-0.00138137	
0.00468	-0.00178308	
0.004685	-0.00224882	
0.00469	-0.00292489	
0.004695	-0.0038978	
0.0047	-0.00483029	
0.004705	-0.0055494	
0.00471	-0.00614135	
0.004715	-0.00662146	
0.00472	-0.00700512	
0.004725	-0.00730704	
0.00473	-0.00754079	
0.004735	-0.00771853	
0.00474	-0.00789847	
0.004745	-0.00816642	
0.00475	-0.00852727	
0.004755	-0.00893229	
0.00476	-0.00929976	
0.004765	-0.00957754	
0.00477	-0.00983058	
0.004775	-0.0100554	
0.00478	-0.0102033	
0.004785	-0.0103412	
0.00479	-0.0105134	
0.004795	-0.0107001	
0.0048	-0.0109351	
0.004805	-0.0112383	
0.00481	-0.0115246	
0.004815	-0.0117863	
0.00482	-0.0121144	
0.004825	-0.0125183	
0.00483	-0.0129531	
0.004835	-0.0133877	
0.00484	-0.0138016	
0.004845	-0.0141823	
0.00485	-0.0144755	
0.004855	-0.0146497	
0.00486	-0.0147847	
0.004865	-0.014935	
0.00487	-0.0150882	
0.004875	-0.0152362	
0.00488	-0.0153737	
0.004885	-0.0154978	
0.00489	-0.0156072	
0.004895	-0.0157017	
0.0049	-0.0157819	
0.004905	-0.0158964	
0.00491	-0.0160757	
0.004915	-0.0163368	
0.00492	-0.0166869	
0.004925	-0.0169842	
0.00493	-0.0171374	
0.004935	-0.0171884	
0.00494	-0.0171697	
0.004945	-0.0171058	
0.00495	-0.0170152	
0.004955	-0.0169112	
0.00496	-0.0168034	
0.004965	-0.0166981	
0.00497	-0.0165994	
0.004975	-0.0165574	
0.00498	-0.0166497	
0.004985	-0.0168262	
0.00499	-0.0170024	
0.004995	-0.0171225	
0.005	-0.0171049	
0.005005	-0.0170448	
0.00501	-0.0170547	
0.005015	-0.0170626	
