Time - Plot 0	Amplitude - Plot 0	
0	0.023164	
5E-6	0.0258449	
1E-5	0.0283392	
1.5E-5	0.0306873	
2E-5	0.0328757	
2.5E-5	0.0349028	
3E-5	0.0368226	
3.5E-5	0.0386285	
4E-5	0.0403214	
4.5E-5	0.0420024	
5E-5	0.0437385	
5.5E-5	0.045524	
6E-5	0.0473052	
6.5E-5	0.0489992	
7E-5	0.0506031	
7.5E-5	0.0521669	
8E-5	0.0536778	
8.5E-5	0.0550824	
9E-5	0.056398	
9.5E-5	0.0576401	
0.0001	0.0588227	
0.000105	0.0600051	
0.00011	0.061179	
0.000115	0.0622918	
0.00012	0.0633592	
0.000125	0.0644413	
0.00013	0.0655293	
0.000135	0.0665699	
0.00014	0.0675775	
0.000145	0.0686107	
0.00015	0.0696595	
0.000155	0.070669	
0.00016	0.0716048	
0.000165	0.0724953	
0.00017	0.0734089	
0.000175	0.074342	
0.00018	0.0752439	
0.000185	0.07613	
0.00019	0.0770114	
0.000195	0.0778005	
0.0002	0.0784438	
0.000205	0.0790081	
0.00021	0.0795412	
0.000215	0.0800284	
0.00022	0.08051	
0.000225	0.0810125	
0.00023	0.0815051	
0.000235	0.0820154	
0.00024	0.0825608	
0.000245	0.083056	
0.00025	0.0834471	
0.000255	0.083751	
0.00026	0.0840307	
0.000265	0.0843763	
0.00027	0.0847489	
0.000275	0.0850266	
0.00028	0.0851812	
0.000285	0.0852947	
0.00029	0.0854234	
0.000295	0.0855559	
0.0003	0.0856847	
0.000305	0.0857575	
0.00031	0.0857423	
0.000315	0.0856699	
0.00032	0.0856106	
0.000325	0.0856579	
0.00033	0.0857733	
0.000335	0.085833	
0.00034	0.0858532	
0.000345	0.0859414	
0.00035	0.0860703	
0.000355	0.0861249	
0.00036	0.0860803	
0.000365	0.0859725	
0.00037	0.0857806	
0.000375	0.0854472	
0.00038	0.0850362	
0.000385	0.0846887	
0.00039	0.0843994	
0.000395	0.0840672	
0.0004	0.0836747	
0.000405	0.0832612	
0.00041	0.0828533	
0.000415	0.0824209	
0.00042	0.0818977	
0.000425	0.0812918	
0.00043	0.0806601	
0.000435	0.0800413	
0.00044	0.0794602	
0.000445	0.0789314	
0.00045	0.0784147	
0.000455	0.0778827	
0.00046	0.077366	
0.000465	0.0768361	
0.00047	0.0762275	
0.000475	0.0755009	
0.00048	0.0746831	
0.000485	0.073844	
0.00049	0.0730305	
0.000495	0.0722724	
0.0005	0.071539	
0.000505	0.0707617	
0.00051	0.069897	
0.000515	0.0689206	
0.00052	0.0678691	
0.000525	0.0668179	
0.00053	0.0658166	
0.000535	0.064848	
0.00054	0.0638517	
0.000545	0.0628368	
0.00055	0.0618575	
0.000555	0.0609006	
0.00056	0.0599561	
0.000565	0.0590645	
0.00057	0.0581548	
0.000575	0.0571337	
0.00058	0.0560398	
0.000585	0.0549497	
0.00059	0.0539137	
0.000595	0.0529147	
0.0006	0.0518924	
0.000605	0.0508556	
0.00061	0.0498581	
0.000615	0.0488863	
0.00062	0.0478823	
0.000625	0.046857	
0.00063	0.0458186	
0.000635	0.0447257	
0.00064	0.0436484	
0.000645	0.0426325	
0.00065	0.04161	
0.000655	0.0405839	
0.00066	0.0395565	
0.000665	0.0385293	
0.00067	0.0375508	
0.000675	0.0366508	
0.00068	0.0358449	
0.000685	0.0350918	
0.00069	0.034314	
0.000695	0.0335092	
0.0007	0.0326771	
0.000705	0.0317713	
0.00071	0.0308122	
0.000715	0.0298633	
0.00072	0.0289185	
0.000725	0.0279261	
0.00073	0.0269016	
0.000735	0.0259044	
0.00074	0.0249724	
0.000745	0.0240799	
0.00075	0.0231606	
0.000755	0.0222197	
0.00076	0.0213088	
0.000765	0.020461	
0.00077	0.0196948	
0.000775	0.0189711	
0.00078	0.0182147	
0.000785	0.0174248	
0.00079	0.0166027	
0.000795	0.0157033	
0.0008	0.0147478	
0.000805	0.0138005	
0.00081	0.0129035	
0.000815	0.012082	
0.00082	0.0113492	
0.000825	0.0107095	
0.00083	0.010114	
0.000835	0.00948063	
0.00084	0.00880475	
0.000845	0.00808528	
0.00085	0.00727602	
0.000855	0.0063983	
0.00086	0.00551696	
0.000865	0.00467492	
0.00087	0.0038986	
0.000875	0.00320235	
0.00088	0.00254429	
0.000885	0.00184745	
0.00089	0.00111047	
0.000895	0.000381889	
0.0009	-0.000306703	
0.000905	-0.000983891	
0.00091	-0.0017166	
0.000915	-0.0024988	
0.00092	-0.00327664	
0.000925	-0.0040148	
0.00093	-0.00473943	
0.000935	-0.00551594	
0.00094	-0.00628992	
0.000945	-0.0069781	
0.00095	-0.00762468	
0.000955	-0.0082608	
0.00096	-0.00885992	
0.000965	-0.00940632	
0.00097	-0.00989212	
0.000975	-0.010315	
0.00098	-0.0107239	
0.000985	-0.0111517	
0.00099	-0.0115719	
0.000995	-0.0120146	
0.001	-0.0124989	
0.001005	-0.0129875	
0.00101	-0.013456	
0.001015	-0.013889	
0.00102	-0.0142782	
0.001025	-0.01462	
0.00103	-0.0149145	
0.001035	-0.0152113	
0.00104	-0.0155907	
0.001045	-0.0160542	
0.00105	-0.0165512	
0.001055	-0.0170467	
0.00106	-0.0175179	
0.001065	-0.0179982	
0.00107	-0.0185095	
0.001075	-0.0190169	
0.00108	-0.0195453	
0.001085	-0.0200625	
0.00109	-0.0204529	
0.001095	-0.0207412	
0.0011	-0.0210436	
0.001105	-0.0213885	
0.00111	-0.0216976	
0.001115	-0.0219209	
0.00112	-0.0221722	
0.001125	-0.0225251	
0.00113	-0.0229283	
0.001135	-0.0233457	
0.00114	-0.023705	
0.001145	-0.0239616	
0.00115	-0.0241858	
0.001155	-0.0244732	
0.00116	-0.0247886	
0.001165	-0.0250125	
0.00117	-0.025118	
0.001175	-0.0251878	
0.00118	-0.0252785	
0.001185	-0.0253311	
0.00119	-0.0253085	
0.001195	-0.0252849	
0.0012	-0.0253569	
0.001205	-0.0255361	
0.00121	-0.0257298	
0.001215	-0.025829	
0.00122	-0.0258612	
0.001225	-0.0259426	
0.00123	-0.0260528	
0.001235	-0.0260815	
0.00124	-0.0260078	
0.001245	-0.0258699	
0.00125	-0.0256962	
0.001255	-0.0255072	
0.00126	-0.025317	
0.001265	-0.025135	
0.00127	-0.024967	
0.001275	-0.0248162	
0.00128	-0.0246839	
0.001285	-0.0245225	
0.00129	-0.0242544	
0.001295	-0.0239287	
0.0013	-0.023628	
0.001305	-0.0233104	
0.00131	-0.0229492	
0.001315	-0.0226238	
0.00132	-0.022385	
0.001325	-0.0221671	
0.00133	-0.0219256	
0.001335	-0.0216801	
0.00134	-0.0213959	
0.001345	-0.0210523	
0.00135	-0.020638	
0.001355	-0.0200543	
0.00136	-0.0192437	
0.001365	-0.018227	
0.00137	-0.0170272	
0.001375	-0.0156685	
0.00138	-0.0141742	
0.001385	-0.012566	
0.00139	-0.0109113	
0.001395	-0.00920919	
0.0014	-0.00736611	
0.001405	-0.00537467	
0.00141	-0.00295178	
0.001415	0.000258948	
0.00142	0.00397987	
0.001425	0.00776613	
0.00143	0.0114164	
0.001435	0.0148519	
0.00144	0.0180783	
0.001445	0.0211094	
0.00145	0.0239633	
0.001455	0.0266131	
0.00146	0.0290504	
0.001465	0.0313274	
0.00147	0.0334386	
0.001475	0.0353881	
0.00148	0.0372815	
0.001485	0.0391908	
0.00149	0.0410679	
0.001495	0.042835	
0.0015	0.0444935	
0.001505	0.046097	
0.00151	0.047636	
0.001515	0.0491071	
0.00152	0.050559	
0.001525	0.0519772	
0.00153	0.0533059	
0.001535	0.0545129	
0.00154	0.05563	
0.001545	0.0567302	
0.00155	0.0578146	
0.001555	0.0588374	
0.00156	0.0598186	
0.001565	0.0608212	
0.00157	0.061838	
0.001575	0.062816	
0.00158	0.0637697	
0.001585	0.0647574	
0.00159	0.0657683	
0.001595	0.0667942	
0.0016	0.0678291	
0.001605	0.0687733	
0.00161	0.0695656	
0.001615	0.0702203	
0.00162	0.0708007	
0.001625	0.0713999	
0.00163	0.0720306	
0.001635	0.0726523	
0.00164	0.0732385	
0.001645	0.0738213	
0.00165	0.0744217	
0.001655	0.0750054	
0.00166	0.075598	
0.001665	0.0762159	
0.00167	0.0768213	
0.001675	0.0773898	
0.00168	0.0779072	
0.001685	0.0784138	
0.00169	0.0789845	
0.001695	0.079618	
0.0017	0.0802153	
0.001705	0.0806656	
0.00171	0.0809499	
0.001715	0.0811591	
0.00172	0.0813562	
0.001725	0.0815362	
0.00173	0.0817438	
0.001735	0.0819598	
0.00174	0.0820761	
0.001745	0.0820736	
0.00175	0.0819929	
0.001755	0.0818644	
0.00176	0.0817105	
0.001765	0.0815472	
0.00177	0.0813853	
0.001775	0.0812321	
0.00178	0.0810443	
0.001785	0.0807475	
0.00179	0.0803453	
0.001795	0.0798926	
0.0018	0.0794281	
0.001805	0.0789778	
0.00181	0.0785581	
0.001815	0.0781309	
0.00182	0.0776239	
0.001825	0.0770407	
0.00183	0.0764825	
0.001835	0.0760621	
0.00184	0.0757525	
0.001845	0.0754355	
0.00185	0.0750336	
0.001855	0.0744997	
0.00186	0.0739039	
0.001865	0.073343	
0.00187	0.0727842	
0.001875	0.0722057	
0.00188	0.0715939	
0.001885	0.0709417	
0.00189	0.0703411	
0.001895	0.069803	
0.0019	0.0692365	
0.001905	0.068583	
0.00191	0.0678555	
0.001915	0.0671136	
0.00192	0.0663498	
0.001925	0.0655601	
0.00193	0.0647907	
0.001935	0.0640711	
0.00194	0.0633707	
0.001945	0.0625737	
0.00195	0.0616555	
0.001955	0.0607484	
0.00196	0.0598914	
0.001965	0.0590131	
0.00197	0.0581146	
0.001975	0.0571978	
0.00198	0.0562648	
0.001985	0.0553652	
0.00199	0.0544826	
0.001995	0.0536055	
0.002	0.0527259	
0.002005	0.0517912	
0.00201	0.0508169	
0.002015	0.0498626	
0.00202	0.0489189	
0.002025	0.047932	
0.00203	0.0469155	
0.002035	0.0459278	
0.00204	0.0450057	
0.002045	0.0441229	
0.00205	0.0432127	
0.002055	0.0422325	
0.00206	0.0412049	
0.002065	0.0401947	
0.00207	0.0391961	
0.002075	0.038205	
0.00208	0.0372181	
0.002085	0.0361856	
0.00209	0.0351718	
0.002095	0.0342659	
0.0021	0.0334264	
0.002105	0.0326229	
0.00211	0.0318336	
0.002115	0.0309959	
0.00212	0.0301184	
0.002125	0.0292561	
0.00213	0.0283972	
0.002135	0.0274859	
0.00214	0.0265358	
0.002145	0.0256525	
0.00215	0.0248551	
0.002155	0.0240568	
0.00216	0.0232483	
0.002165	0.0224238	
0.00217	0.0215801	
0.002175	0.0207637	
0.00218	0.0200039	
0.002185	0.0192698	
0.00219	0.0184923	
0.002195	0.0176755	
0.0022	0.0168713	
0.002205	0.0161136	
0.00221	0.0153747	
0.002215	0.0145881	
0.00222	0.0137598	
0.002225	0.0129432	
0.00223	0.0121728	
0.002235	0.0114219	
0.00224	0.0106242	
0.002245	0.00978592	
0.00225	0.00896048	
0.002255	0.00818257	
0.00226	0.00747278	
0.002265	0.00679395	
0.00227	0.00607256	
0.002275	0.00535724	
0.00228	0.00472728	
0.002285	0.00413586	
0.00229	0.00350277	
0.002295	0.0028246	
0.0023	0.00214878	
0.002305	0.00150648	
0.00231	0.000916666	
0.002315	0.000341811	
0.00232	-0.000243524	
0.002325	-0.00085562	
0.00233	-0.00155148	
0.002335	-0.00226966	
0.00234	-0.00292104	
0.002345	-0.00354512	
0.00235	-0.00416921	
0.002355	-0.00481132	
0.00236	-0.00553002	
0.002365	-0.00626522	
0.00237	-0.00692899	
0.002375	-0.00756181	
0.00238	-0.00819182	
0.002385	-0.00879019	
0.00239	-0.00933938	
0.002395	-0.00987772	
0.0024	-0.010431	
0.002405	-0.0109679	
0.00241	-0.0115162	
0.002415	-0.0120936	
0.00242	-0.0126628	
0.002425	-0.0131998	
0.00243	-0.0136901	
0.002435	-0.0141264	
0.00244	-0.0145066	
0.002445	-0.0148792	
0.00245	-0.0153242	
0.002455	-0.0158436	
0.00246	-0.0163874	
0.002465	-0.0169216	
0.00247	-0.0174241	
0.002475	-0.0178821	
0.00248	-0.0183365	
0.002485	-0.0188146	
0.00249	-0.0192382	
0.002495	-0.0196058	
0.0025	-0.0199667	
0.002505	-0.0202584	
0.00251	-0.0204909	
0.002515	-0.0207208	
0.00252	-0.0209381	
0.002525	-0.0211843	
0.00253	-0.0214856	
0.002535	-0.0218089	
0.00254	-0.0221313	
0.002545	-0.022438	
0.00255	-0.0227199	
0.002555	-0.0230195	
0.00256	-0.0233641	
0.002565	-0.0237223	
0.00257	-0.0240723	
0.002575	-0.0243529	
0.00258	-0.0245745	
0.002585	-0.0247942	
0.00259	-0.0249547	
0.002595	-0.0250211	
0.0026	-0.0250223	
0.002605	-0.0249804	
0.00261	-0.0249121	
0.002615	-0.0248772	
0.00262	-0.0249135	
0.002625	-0.0249474	
0.00263	-0.0249307	
0.002635	-0.0248814	
0.00264	-0.0246702	
0.002645	-0.0241723	
0.00265	-0.0236039	
0.002655	-0.023206	
0.00266	-0.0229869	
0.002665	-0.022896	
0.00267	-0.0228941	
0.002675	-0.0229508	
0.00268	-0.0230435	
0.002685	-0.0231081	
0.00269	-0.0231034	
0.002695	-0.023101	
0.0027	-0.0231476	
0.002705	-0.0232243	
0.00271	-0.0233173	
0.002715	-0.0233691	
0.00272	-0.0232962	
0.002725	-0.0230969	
0.00273	-0.0228238	
0.002735	-0.022515	
0.00274	-0.0222447	
0.002745	-0.0220126	
0.00275	-0.021674	
0.002755	-0.0210912	
0.00276	-0.0201847	
0.002765	-0.0190126	
0.00277	-0.0174356	
0.002775	-0.0150958	
0.00278	-0.0120785	
0.002785	-0.00870966	
0.00279	-0.00517333	
0.002795	-0.00159875	
0.0028	0.00192705	
0.002805	0.00534901	
0.00281	0.00863571	
0.002815	0.0117253	
0.00282	0.0145864	
0.002825	0.0172565	
0.00283	0.0197695	
0.002835	0.0222026	
0.00284	0.0246107	
0.002845	0.0269358	
0.00285	0.0291438	
0.002855	0.0312652	
0.00286	0.0332767	
0.002865	0.0351682	
0.00287	0.0369861	
0.002875	0.0387646	
0.00288	0.0405281	
0.002885	0.0422933	
0.00289	0.0440713	
0.002895	0.0458211	
0.0029	0.0474695	
0.002905	0.0490207	
0.00291	0.0505296	
0.002915	0.0519866	
0.00292	0.0533405	
0.002925	0.05461	
0.00293	0.0558588	
0.002935	0.0571301	
0.00294	0.0584034	
0.002945	0.059618	
0.00295	0.0607839	
0.002955	0.0619101	
0.00296	0.0629569	
0.002965	0.0639493	
0.00297	0.064954	
0.002975	0.0659668	
0.00298	0.066937	
0.002985	0.0678333	
0.00299	0.0686385	
0.002995	0.069393	
0.003	0.0701735	
0.003005	0.0709818	
0.00301	0.0718177	
0.003015	0.0726798	
0.00302	0.0735183	
0.003025	0.0743493	
0.00303	0.0751835	
0.003035	0.0759803	
0.00304	0.0767148	
0.003045	0.0773735	
0.00305	0.0779511	
0.003055	0.0784478	
0.00306	0.0789153	
0.003065	0.0794364	
0.00307	0.0800159	
0.003075	0.0806063	
0.00308	0.0811761	
0.003085	0.0817053	
0.00309	0.0821827	
0.003095	0.0826035	
0.0031	0.0829669	
0.003105	0.0832753	
0.00311	0.0835329	
0.003115	0.0837448	
0.00312	0.0839166	
0.003125	0.0840537	
0.00313	0.0841616	
0.003135	0.084245	
0.00314	0.0843084	
0.003145	0.0843556	
0.00315	0.0843899	
0.003155	0.084414	
0.00316	0.0843827	
0.003165	0.0842689	
0.00317	0.0841536	
0.003175	0.0840902	
0.00318	0.0840642	
0.003185	0.0840164	
0.00319	0.0838614	
0.003195	0.0836432	
0.0032	0.0834411	
0.003205	0.0832116	
0.00321	0.0829274	
0.003215	0.0825731	
0.00322	0.0821417	
0.003225	0.0816799	
0.00323	0.0811723	
0.003235	0.0806111	
0.00324	0.0800411	
0.003245	0.0794921	
0.00325	0.0789831	
0.003255	0.0785244	
0.00326	0.0781207	
0.003265	0.0777247	
0.00327	0.0772575	
0.003275	0.0767179	
0.00328	0.0761561	
0.003285	0.0756062	
0.00329	0.0749951	
0.003295	0.07423	
0.0033	0.0733519	
0.003305	0.0724409	
0.00331	0.0715988	
0.003315	0.070842	
0.00332	0.0700822	
0.003325	0.0693087	
0.00333	0.0685153	
0.003335	0.0676512	
0.00334	0.0667339	
0.003345	0.0658248	
0.00335	0.0649642	
0.003355	0.0641762	
0.00336	0.0634258	
0.003365	0.0626407	
0.00337	0.0617747	
0.003375	0.0608013	
0.00338	0.0597556	
0.003385	0.0587116	
0.00339	0.0577182	
0.003395	0.0568051	
0.0034	0.0559406	
0.003405	0.055054	
0.00341	0.0541472	
0.003415	0.0532699	
0.00342	0.0524062	
0.003425	0.051497	
0.00343	0.0505535	
0.003435	0.0495843	
0.00344	0.048549	
0.003445	0.0474715	
0.00345	0.0463697	
0.003455	0.0452564	
0.00346	0.0441882	
0.003465	0.0431051	
0.00347	0.0419684	
0.003475	0.0408502	
0.00348	0.0397494	
0.003485	0.0386647	
0.00349	0.0376419	
0.003495	0.0366607	
0.0035	0.0356583	
0.003505	0.0346419	
0.00351	0.0336642	
0.003515	0.0327583	
0.00352	0.0318951	
0.003525	0.0310533	
0.00353	0.0302654	
0.003535	0.0295028	
0.00354	0.0287455	
0.003545	0.0279798	
0.00355	0.0271499	
0.003555	0.0262692	
0.00356	0.0253968	
0.003565	0.0245235	
0.00357	0.023596	
0.003575	0.0226764	
0.00358	0.0218532	
0.003585	0.021085	
0.00359	0.0203417	
0.003595	0.0196026	
0.0036	0.018806	
0.003605	0.0179618	
0.00361	0.017126	
0.003615	0.0163353	
0.00362	0.0155643	
0.003625	0.0147475	
0.00363	0.0138918	
0.003635	0.0130508	
0.00364	0.0122593	
0.003645	0.0115379	
0.00365	0.0108493	
0.003655	0.0101197	
0.00366	0.00935025	
0.003665	0.00859078	
0.00367	0.00787385	
0.003675	0.00717134	
0.00368	0.00641649	
0.003685	0.00556776	
0.00369	0.00460221	
0.003695	0.00355777	
0.0037	0.00251071	
0.003705	0.00155898	
0.00371	0.000762651	
0.003715	5.89227E-5	
0.00372	-0.00064554	
0.003725	-0.00141224	
0.00373	-0.00218371	
0.003735	-0.0028743	
0.00374	-0.00352643	
0.003745	-0.00412237	
0.00375	-0.00465307	
0.003755	-0.00521072	
0.00376	-0.0058073	
0.003765	-0.00644887	
0.00377	-0.00713729	
0.003775	-0.00782404	
0.00378	-0.00847722	
0.003785	-0.00912489	
0.00379	-0.00978583	
0.003795	-0.0104243	
0.0038	-0.0110652	
0.003805	-0.0116775	
0.00381	-0.0121944	
0.003815	-0.0127189	
0.00382	-0.0133189	
0.003825	-0.0139402	
0.00383	-0.0145936	
0.003835	-0.0152849	
0.00384	-0.0159685	
0.003845	-0.0165671	
0.00385	-0.0170339	
0.003855	-0.0174391	
0.00386	-0.0178322	
0.003865	-0.0182462	
0.00387	-0.0187495	
0.003875	-0.0192878	
0.00388	-0.0197763	
0.003885	-0.0202563	
0.00389	-0.0207555	
0.003895	-0.0212439	
0.0039	-0.0217019	
0.003905	-0.0221183	
0.00391	-0.0224876	
0.003915	-0.0228558	
0.00392	-0.0232535	
0.003925	-0.0236043	
0.00393	-0.02386	
0.003935	-0.0240409	
0.00394	-0.024164	
0.003945	-0.024243	
0.00395	-0.0242894	
0.003955	-0.0243595	
0.00396	-0.0244895	
0.003965	-0.0246053	
0.00397	-0.0246587	
0.003975	-0.0246685	
0.00398	-0.0246966	
0.003985	-0.0248304	
0.00399	-0.0250753	
0.003995	-0.0253342	
0.004	-0.0255425	
0.004005	-0.0257077	
0.00401	-0.0257891	
0.004015	-0.0257639	
0.00402	-0.025717	
0.004025	-0.0257532	
0.00403	-0.0258901	
0.004035	-0.0260392	
0.00404	-0.0260943	
0.004045	-0.0260373	
0.00405	-0.0259566	
0.004055	-0.0259116	
0.00406	-0.0258923	
0.004065	-0.0258908	
0.00407	-0.0259012	
0.004075	-0.0259189	
0.00408	-0.0258931	
0.004085	-0.0257922	
0.00409	-0.0256466	
0.004095	-0.0254785	
0.0041	-0.0253034	
0.004105	-0.025132	
0.00411	-0.0249711	
0.004115	-0.0248249	
0.00412	-0.0246476	
0.004125	-0.0243156	
0.00413	-0.0237072	
0.004135	-0.0228027	
0.00414	-0.0216508	
0.004145	-0.0200573	
0.00415	-0.0177728	
0.004155	-0.0149031	
0.00416	-0.0116405	
0.004165	-0.00817824	
0.00417	-0.00470051	
0.004175	-0.00123446	
0.00418	0.00220256	
0.004185	0.00555295	
0.00419	0.00883035	
0.004195	0.0120472	
0.0042	0.0151196	
0.004205	0.0179989	
0.00421	0.0207573	
0.004215	0.0234481	
0.00422	0.0260147	
0.004225	0.0283779	
0.00423	0.0305428	
0.004235	0.0325697	
0.00424	0.0345047	
0.004245	0.0364302	
0.00425	0.0383535	
0.004255	0.0401843	
0.00426	0.0419152	
0.004265	0.0435457	
0.00427	0.0450331	
0.004275	0.0464031	
0.00428	0.0477737	
0.004285	0.0492224	
0.00429	0.0507016	
0.004295	0.0521785	
0.0043	0.053679	
0.004305	0.0551718	
0.00431	0.0565888	
0.004315	0.0579364	
0.00432	0.059222	
0.004325	0.0604059	
0.00433	0.0615143	
0.004335	0.0625681	
0.00434	0.0635835	
0.004345	0.0646206	
0.00435	0.0656706	
0.004355	0.0666794	
0.00436	0.0676608	
0.004365	0.0686253	
0.00437	0.0695331	
0.004375	0.070408	
0.00438	0.0712674	
0.004385	0.0721235	
0.00439	0.073032	
0.004395	0.0739796	
0.0044	0.0749081	
0.004405	0.0757802	
0.00441	0.0765738	
0.004415	0.0773257	
0.00442	0.078062	
0.004425	0.0787532	
0.00443	0.0794296	
0.004435	0.0801116	
0.00444	0.0807652	
0.004445	0.0813691	
0.00445	0.0819117	
0.004455	0.0823882	
0.00446	0.0828461	
0.004465	0.0833652	
0.00447	0.0839476	
0.004475	0.0845441	
0.00448	0.0851218	
0.004485	0.0856598	
0.00449	0.0861461	
0.004495	0.0865753	
0.0045	0.0869467	
0.004505	0.0872622	
0.00451	0.0875261	
0.004515	0.0876959	
0.00452	0.087748	
0.004525	0.0877677	
0.00453	0.0877651	
0.004535	0.0877003	
0.00454	0.0876451	
0.004545	0.0876465	
0.00455	0.087685	
0.004555	0.0877462	
0.00456	0.0878195	
0.004565	0.0878497	
0.00457	0.0877551	
0.004575	0.087535	
0.00458	0.0872427	
0.004585	0.0869641	
0.00459	0.0867552	
0.004595	0.0865547	
0.0046	0.0863216	
0.004605	0.0860781	
0.00461	0.0858392	
0.004615	0.0856147	
0.00462	0.0854102	
0.004625	0.0852287	
0.00463	0.0850708	
0.004635	0.0848886	
0.00464	0.0846037	
0.004645	0.0842171	
0.00465	0.0837818	
0.004655	0.0832874	
0.00466	0.0826823	
0.004665	0.0819854	
0.00467	0.0812608	
0.004675	0.0805048	
0.00468	0.0797163	
0.004685	0.0789911	
0.00469	0.078342	
0.004695	0.0776787	
0.0047	0.0769899	
0.004705	0.0762693	
0.00471	0.0754668	
0.004715	0.0746006	
0.00472	0.0737811	
0.004725	0.0730785	
0.00473	0.0723912	
0.004735	0.0716039	
0.00474	0.0707404	
0.004745	0.0698674	
0.00475	0.0690295	
0.004755	0.0682069	
0.00476	0.0673381	
0.004765	0.0664324	
0.00477	0.0655453	
0.004775	0.0646649	
0.00478	0.0637354	
0.004785	0.0628175	
0.00479	0.0619507	
0.004795	0.0610159	
0.0048	0.0600331	
0.004805	0.0591125	
0.00481	0.0582291	
0.004815	0.0573643	
0.00482	0.0565528	
0.004825	0.0557672	
0.00483	0.0548932	
0.004835	0.0539073	
0.00484	0.0529417	
0.004845	0.0520827	
0.00485	0.0512871	
0.004855	0.0504759	
0.00486	0.0495977	
0.004865	0.0486217	
0.00487	0.0475799	
0.004875	0.046544	
0.00488	0.0455134	
0.004885	0.0444401	
0.00489	0.0433893	
0.004895	0.042403	
0.0049	0.0414109	
0.004905	0.0404143	
0.00491	0.0394144	
0.004915	0.0383645	
0.00492	0.0372838	
0.004925	0.0362813	
0.00493	0.035378	
0.004935	0.0344876	
0.00494	0.0335528	
0.004945	0.0325378	
0.00495	0.0315181	
0.004955	0.0305909	
0.00496	0.029721	
0.004965	0.0288826	
0.00497	0.0280571	
0.004975	0.0271839	
0.00498	0.0262732	
0.004985	0.0253808	
0.00499	0.0244951	
0.004995	0.0236082	
0.005	0.0227624	
0.005005	0.0219363	
0.00501	0.0211146	
0.005015	0.0203347	
0.00502	0.0195718	
0.005025	0.018761	
0.00503	0.0179095	
0.005035	0.0171189	
0.00504	0.0164059	
0.005045	0.0156828	
0.00505	0.0149395	
0.005055	0.0141707	
0.00506	0.0133263	
0.005065	0.0123769	
