Time - Plot 0	Amplitude - Plot 0	
0	0.021007	
5E-6	0.0202251	
1E-5	0.0194661	
1.5E-5	0.0186629	
2E-5	0.0178685	
2.5E-5	0.0172127	
3E-5	0.0166316	
3.5E-5	0.0159847	
4E-5	0.0153251	
4.5E-5	0.0146882	
5E-5	0.0140489	
5.5E-5	0.0134383	
6E-5	0.0128279	
6.5E-5	0.0121514	
7E-5	0.0114159	
7.5E-5	0.0106762	
8E-5	0.00992118	
8.5E-5	0.00914427	
9E-5	0.00838966	
9.5E-5	0.00768544	
0.0001	0.00700022	
0.000105	0.00626487	
0.00011	0.0054837	
0.000115	0.00470928	
0.00012	0.00397593	
0.000125	0.00330435	
0.00013	0.00265773	
0.000135	0.00196307	
0.00014	0.00122206	
0.000145	0.00048554	
0.00015	-0.000213187	
0.000155	-0.000853946	
0.00016	-0.00142618	
0.000165	-0.00192616	
0.00017	-0.0024024	
0.000175	-0.00288798	
0.00018	-0.00330923	
0.000185	-0.00366814	
0.00019	-0.00406404	
0.000195	-0.00451313	
0.0002	-0.00497606	
0.000205	-0.00552129	
0.00021	-0.00619006	
0.000215	-0.00681359	
0.00022	-0.00728272	
0.000225	-0.00767541	
0.00023	-0.00809418	
0.000235	-0.00855788	
0.00024	-0.00902928	
0.000245	-0.00948345	
0.00025	-0.00990479	
0.000255	-0.0103321	
0.00026	-0.0107906	
0.000265	-0.0112005	
0.00027	-0.011559	
0.000275	-0.0119142	
0.00028	-0.0122028	
0.000285	-0.0123863	
0.00029	-0.0125395	
0.000295	-0.0127604	
0.0003	-0.0130631	
0.000305	-0.0134054	
0.00031	-0.0137576	
0.000315	-0.0140997	
0.00032	-0.0144189	
0.000325	-0.014708	
0.00033	-0.0149635	
0.000335	-0.0152323	
0.00034	-0.0155448	
0.000345	-0.0158236	
0.00035	-0.0160196	
0.000355	-0.0161993	
0.00036	-0.0164072	
0.000365	-0.0165764	
0.00037	-0.0166644	
0.000375	-0.0166949	
0.00038	-0.0167334	
0.000385	-0.016823	
0.00039	-0.0168945	
0.000395	-0.0169031	
0.0004	-0.0169175	
0.000405	-0.0169824	
0.00041	-0.0170776	
0.000415	-0.0172358	
0.00042	-0.0174281	
0.000425	-0.0175862	
0.00043	-0.0177618	
0.000435	-0.0179882	
0.00044	-0.0182374	
0.000445	-0.0184423	
0.00045	-0.0185132	
0.000455	-0.0184449	
0.00046	-0.018288	
0.000465	-0.0180802	
0.00047	-0.0178486	
0.000475	-0.0176122	
0.00048	-0.0173839	
0.000485	-0.0171717	
0.00049	-0.0169802	
0.000495	-0.0168114	
0.0005	-0.0166655	
0.000505	-0.0165416	
0.00051	-0.0164382	
0.000515	-0.0163055	
0.00052	-0.0160647	
0.000525	-0.0157166	
0.00053	-0.0153617	
0.000535	-0.0150666	
0.00054	-0.0147773	
0.000545	-0.0144106	
0.00055	-0.0138675	
0.000555	-0.0129961	
0.00056	-0.0116642	
0.000565	-0.00985414	
0.00057	-0.00767169	
0.000575	-0.00525189	
0.00058	-0.00269498	
0.000585	-7.35305E-5	
0.00059	0.00260909	
0.000595	0.00534777	
0.0006	0.00808894	
0.000605	0.0107972	
0.00061	0.0134507	
0.000615	0.0160377	
0.00062	0.018506	
0.000625	0.0208743	
0.00063	0.0232549	
0.000635	0.0256261	
0.00064	0.0279264	
0.000645	0.0301662	
0.00065	0.0323554	
0.000655	0.0345026	
0.00066	0.0365681	
0.000665	0.0384822	
0.00067	0.0402533	
0.000675	0.041989	
0.00068	0.0437619	
0.000685	0.045523	
0.00069	0.047193	
0.000695	0.0487715	
0.0007	0.0503576	
0.000705	0.0519688	
0.00071	0.0535203	
0.000715	0.0550067	
0.00072	0.0564748	
0.000725	0.0579565	
0.00073	0.0594247	
0.000735	0.0608145	
0.00074	0.0621344	
0.000745	0.0634408	
0.00075	0.0646766	
0.000755	0.0657599	
0.00076	0.0667388	
0.000765	0.0676978	
0.00077	0.0686933	
0.000775	0.0697608	
0.00078	0.0709205	
0.000785	0.0721336	
0.00079	0.0733245	
0.000795	0.0744444	
0.0008	0.0754647	
0.000805	0.0764184	
0.00081	0.0773783	
0.000815	0.0783443	
0.00082	0.0792687	
0.000825	0.080122	
0.00083	0.0808879	
0.000835	0.0815601	
0.00084	0.0821862	
0.000845	0.0828474	
0.00085	0.083548	
0.000855	0.0842414	
0.00086	0.0848973	
0.000865	0.0855449	
0.00087	0.0862041	
0.000875	0.086792	
0.00088	0.0872578	
0.000885	0.0876209	
0.00089	0.0878991	
0.000895	0.0881558	
0.0009	0.0884337	
0.000905	0.0887124	
0.00091	0.0890259	
0.000915	0.0893477	
0.00092	0.0896121	
0.000925	0.0898737	
0.00093	0.0901686	
0.000935	0.0904715	
0.00094	0.0907654	
0.000945	0.0910395	
0.00095	0.0912399	
0.000955	0.0913348	
0.00096	0.0914032	
0.000965	0.0914509	
0.00097	0.091435	
0.000975	0.0913781	
0.00098	0.0912493	
0.000985	0.090984	
0.00099	0.0905938	
0.000995	0.0901873	
0.001	0.0898842	
0.001005	0.0897112	
0.00101	0.0895847	
0.001015	0.0894472	
0.00102	0.0893091	
0.001025	0.089177	
0.00103	0.0890551	
0.001035	0.0888983	
0.00104	0.0886782	
0.001045	0.0884269	
0.00105	0.0881668	
0.001055	0.0879133	
0.00106	0.0876285	
0.001065	0.0872416	
0.00107	0.0867105	
0.001075	0.086062	
0.00108	0.0853667	
0.001085	0.0846734	
0.00109	0.0839667	
0.001095	0.0831896	
0.0011	0.0823552	
0.001105	0.0815225	
0.00111	0.0807304	
0.001115	0.0800024	
0.00112	0.0793036	
0.001125	0.0786097	
0.00113	0.0779516	
0.001135	0.0773009	
0.00114	0.0766383	
0.001145	0.0759991	
0.00115	0.0753581	
0.001155	0.0746511	
0.00116	0.0738866	
0.001165	0.0731202	
0.00117	0.0723414	
0.001175	0.0715436	
0.00118	0.0707711	
0.001185	0.0700042	
0.00119	0.0691823	
0.001195	0.0682678	
0.0012	0.0673357	
0.001205	0.0664834	
0.00121	0.0656766	
0.001215	0.0648429	
0.00122	0.0639833	
0.001225	0.0631474	
0.00123	0.062319	
0.001235	0.0614872	
0.00124	0.0606926	
0.001245	0.0599125	
0.00125	0.0590838	
0.001255	0.0582147	
0.00126	0.0573601	
0.001265	0.0565554	
0.00127	0.0557743	
0.001275	0.0549504	
0.00128	0.0540899	
0.001285	0.0531984	
0.00129	0.0522335	
0.001295	0.0512183	
0.0013	0.050218	
0.001305	0.0492749	
0.00131	0.0483664	
0.001315	0.0474288	
0.00132	0.0464687	
0.001325	0.0454917	
0.00133	0.0444546	
0.001335	0.0433796	
0.00134	0.0423302	
0.001345	0.0413475	
0.00135	0.0404077	
0.001355	0.039493	
0.00136	0.0386382	
0.001365	0.0377682	
0.00137	0.0367868	
0.001375	0.0357783	
0.00138	0.0348947	
0.001385	0.0341353	
0.00139	0.0333985	
0.001395	0.0326641	
0.0014	0.0319184	
0.001405	0.0311054	
0.00141	0.030239	
0.001415	0.0293784	
0.00142	0.0285147	
0.001425	0.0275948	
0.00143	0.0266338	
0.001435	0.0256912	
0.00144	0.0248053	
0.001445	0.0239511	
0.00145	0.0230631	
0.001455	0.0221474	
0.00146	0.0212567	
0.001465	0.0204245	
0.00147	0.0196704	
0.001475	0.0190034	
0.00148	0.0184253	
0.001485	0.0178858	
0.00149	0.017302	
0.001495	0.0166692	
0.0015	0.0160339	
0.001505	0.0154272	
0.00151	0.0148678	
0.001515	0.0143663	
0.00152	0.013879	
0.001525	0.013329	
0.00153	0.0127163	
0.001535	0.0120436	
0.00154	0.0112681	
0.001545	0.0104139	
0.00155	0.00954835	
0.001555	0.00866863	
0.00156	0.00777365	
0.001565	0.00695849	
0.00157	0.00632957	
0.001575	0.0058532	
0.00158	0.00535734	
0.001585	0.004777	
0.00159	0.00416842	
0.001595	0.00352247	
0.0016	0.00278735	
0.001605	0.00198068	
0.00161	0.00121252	
0.001615	0.000553617	
0.00162	-4.96166E-5	
0.001625	-0.000635149	
0.00163	-0.00118132	
0.001635	-0.0016757	
0.00164	-0.00211255	
0.001645	-0.00249081	
0.00165	-0.00281254	
0.001655	-0.00308179	
0.00166	-0.00335123	
0.001665	-0.00375066	
0.00167	-0.00431198	
0.001675	-0.00490595	
0.00168	-0.00549336	
0.001685	-0.0060962	
0.00169	-0.00663316	
0.001695	-0.00710128	
0.0017	-0.00754942	
0.001705	-0.00796317	
0.00171	-0.0083347	
0.001715	-0.0086608	
0.00172	-0.00898907	
0.001725	-0.00935077	
0.00173	-0.00971741	
0.001735	-0.01007	
0.00174	-0.0103966	
0.001745	-0.0107381	
0.00175	-0.0111209	
0.001755	-0.0114653	
0.00176	-0.011768	
0.001765	-0.0120765	
0.00177	-0.0123267	
0.001775	-0.0125266	
0.00178	-0.012779	
0.001785	-0.0131015	
0.00179	-0.013455	
0.001795	-0.0138123	
0.0018	-0.0141552	
0.001805	-0.0144723	
0.00181	-0.0147574	
0.001815	-0.015008	
0.00182	-0.015224	
0.001825	-0.0154069	
0.00183	-0.0155593	
0.001835	-0.0156369	
0.00184	-0.0157091	
0.001845	-0.0159168	
0.00185	-0.0161566	
0.001855	-0.0163111	
0.00186	-0.0164021	
0.001865	-0.0164468	
0.00187	-0.016459	
0.001875	-0.0164491	
0.00188	-0.0164727	
0.001885	-0.0165648	
0.00189	-0.0166501	
0.001895	-0.0166794	
0.0019	-0.0166229	
0.001905	-0.0164649	
0.00191	-0.016295	
0.001915	-0.0161728	
0.00192	-0.0160879	
0.001925	-0.015984	
0.00193	-0.015825	
0.001935	-0.0156372	
0.00194	-0.0153917	
0.001945	-0.0150723	
0.00195	-0.0147192	
0.001955	-0.0143606	
0.00196	-0.014063	
0.001965	-0.0138195	
0.00197	-0.0134807	
0.001975	-0.0129525	
0.00198	-0.0122292	
0.001985	-0.0113166	
0.00199	-0.0100369	
0.001995	-0.00814809	
0.002	-0.0057092	
0.002005	-0.00292793	
0.00201	4.26061E-5	
0.002015	0.00314004	
0.00202	0.00631726	
0.002025	0.00944433	
0.00203	0.012438	
0.002035	0.0152971	
0.00204	0.0179799	
0.002045	0.020467	
0.00205	0.0228026	
0.002055	0.0249753	
0.00206	0.0269854	
0.002065	0.0289358	
0.00207	0.0308972	
0.002075	0.0328682	
0.00208	0.0348473	
0.002085	0.0368333	
0.00209	0.0388249	
0.002095	0.0407735	
0.0021	0.0426492	
0.002105	0.0444832	
0.00211	0.0462505	
0.002115	0.0479377	
0.00212	0.0495874	
0.002125	0.0512294	
0.00213	0.0529312	
0.002135	0.0546872	
0.00214	0.0563957	
0.002145	0.0580397	
0.00215	0.0596109	
0.002155	0.0610598	
0.00216	0.0623596	
0.002165	0.063547	
0.00217	0.0646993	
0.002175	0.0658691	
0.00218	0.06709	
0.002185	0.0683345	
0.00219	0.0695833	
0.002195	0.0708708	
0.0022	0.0721705	
0.002205	0.0734168	
0.00221	0.0745689	
0.002215	0.075652	
0.00222	0.0767333	
0.002225	0.07781	
0.00223	0.0788326	
0.002235	0.0797713	
0.00224	0.0806577	
0.002245	0.0815628	
0.00225	0.0824849	
0.002255	0.0833747	
0.00226	0.084201	
0.002265	0.0849465	
0.00227	0.0856033	
0.002275	0.0862182	
0.00228	0.0868715	
0.002285	0.0875191	
0.00229	0.0880848	
0.002295	0.0886173	
0.0023	0.0891503	
0.002305	0.0897059	
0.00231	0.0902976	
0.002315	0.0908378	
0.00232	0.0912707	
0.002325	0.0916125	
0.00233	0.0919256	
0.002335	0.0923001	
0.00234	0.0927448	
0.002345	0.0931672	
0.00235	0.09346	
0.002355	0.0936058	
0.00236	0.0936479	
0.002365	0.0936195	
0.00237	0.0935936	
0.002375	0.0936657	
0.00238	0.0938464	
0.002385	0.0940427	
0.00239	0.0941449	
0.002395	0.0941327	
0.0024	0.0940457	
0.002405	0.0939134	
0.00241	0.0937576	
0.002415	0.0935935	
0.00242	0.0934319	
0.002425	0.0932794	
0.00243	0.0931878	
0.002435	0.0931882	
0.00244	0.0932016	
0.002445	0.0931755	
0.00245	0.0931245	
0.002455	0.0930596	
0.00246	0.092941	
0.002465	0.0926976	
0.00247	0.0923358	
0.002475	0.0919607	
0.00248	0.091642	
0.002485	0.091328	
0.00249	0.090937	
0.002495	0.0904661	
0.0025	0.0899649	
0.002505	0.0894197	
0.00251	0.0888239	
0.002515	0.0882229	
0.00252	0.0875993	
0.002525	0.0868477	
0.00253	0.0859522	
0.002535	0.0850518	
0.00254	0.0841906	
0.002545	0.0833485	
0.00255	0.0825589	
0.002555	0.0817936	
0.00256	0.0810331	
0.002565	0.0803116	
0.00257	0.0796501	
0.002575	0.0790118	
0.00258	0.0782764	
0.002585	0.0774167	
0.00259	0.0765633	
0.002595	0.0757543	
0.0026	0.0749178	
0.002605	0.0740553	
0.00261	0.0732163	
0.002615	0.0724326	
0.00262	0.0717224	
0.002625	0.0710467	
0.00263	0.0703306	
0.002635	0.0695267	
0.00264	0.0686079	
0.002645	0.0676092	
0.00265	0.0666051	
0.002655	0.0656449	
0.00266	0.064759	
0.002665	0.0639641	
0.00267	0.0632193	
0.002675	0.0624475	
0.00268	0.0615995	
0.002685	0.0606938	
0.00269	0.0597928	
0.002695	0.0588901	
0.0027	0.0579813	
0.002705	0.0571116	
0.00271	0.0563088	
0.002715	0.0555405	
0.00272	0.0547362	
0.002725	0.0538987	
0.00273	0.0530789	
0.002735	0.0523096	
0.00274	0.0515623	
0.002745	0.05077	
0.00275	0.0498903	
0.002755	0.0488995	
0.00276	0.0478348	
0.002765	0.0467718	
0.00277	0.0457125	
0.002775	0.0446584	
0.00278	0.0436574	
0.002785	0.0426914	
0.00279	0.0417465	
0.002795	0.0408602	
0.0028	0.0400071	
0.002805	0.0391209	
0.00281	0.0381124	
0.002815	0.0369758	
0.00282	0.0359036	
0.002825	0.0350196	
0.00283	0.034254	
0.002835	0.0335076	
0.00284	0.0327616	
0.002845	0.0320512	
0.00285	0.0313503	
0.002855	0.0305938	
0.00286	0.0297412	
0.002865	0.0287707	
0.00287	0.0277207	
0.002875	0.0266679	
0.00288	0.0256632	
0.002885	0.0246901	
0.00289	0.0237363	
0.002895	0.022888	
0.0029	0.0221493	
0.002905	0.0215177	
0.00291	0.0210343	
0.002915	0.0205763	
0.00292	0.0201093	
0.002925	0.0197058	
0.00293	0.0192683	
0.002935	0.0186865	
0.00294	0.0179895	
0.002945	0.0172494	
0.00295	0.0165161	
0.002955	0.0157743	
0.00296	0.0149669	
0.002965	0.0141069	
0.00297	0.013253	
0.002975	0.0124434	
0.00298	0.0116538	
0.002985	0.0108196	
0.00299	0.00994805	
0.002995	0.00914054	
0.003	0.00827085	
0.003005	0.0071161	
0.00301	0.00592307	
0.003015	0.00485631	
0.00302	0.00378065	
0.003025	0.00284507	
0.00303	0.00218871	
0.003035	0.00165242	
0.00304	0.00112559	
0.003045	0.000629924	
0.00305	0.000130709	
0.003055	-0.000394769	
0.00306	-0.000912709	
0.003065	-0.00140118	
0.00307	-0.00184712	
0.003075	-0.00224393	
0.00308	-0.00258957	
0.003085	-0.00293266	
0.00309	-0.00335291	
0.003095	-0.0037091	
0.0031	-0.00391112	
0.003105	-0.00423962	
0.00311	-0.00487364	
0.003115	-0.00567913	
0.00312	-0.00646451	
0.003125	-0.00719947	
0.00313	-0.00791397	
0.003135	-0.00853365	
0.00314	-0.00901396	
0.003145	-0.0094272	
0.00315	-0.00982421	
0.003155	-0.0101917	
0.00316	-0.0105224	
0.003165	-0.0108132	
0.00317	-0.0110639	
0.003175	-0.0112764	
0.00318	-0.0114535	
0.003185	-0.011599	
0.00319	-0.0115742	
0.003195	-0.0113431	
0.0032	-0.0112247	
0.003205	-0.0113287	
0.00321	-0.011527	
0.003215	-0.0118255	
0.00322	-0.0121761	
0.003225	-0.0124968	
0.00323	-0.0128303	
0.003235	-0.0132038	
0.00324	-0.0135862	
0.003245	-0.0139563	
0.00325	-0.0143008	
0.003255	-0.0146121	
0.00326	-0.0148868	
0.003265	-0.0151243	
0.00327	-0.0153262	
0.003275	-0.015495	
0.00328	-0.015634	
0.003285	-0.0158893	
0.00329	-0.0163519	
0.003295	-0.0167867	
0.0033	-0.01704	
0.003305	-0.0171616	
0.00331	-0.0171906	
0.003315	-0.0171573	
0.00332	-0.0170843	
0.003325	-0.0169888	
0.00333	-0.0168828	
0.003335	-0.016775	
0.00334	-0.016671	
0.003345	-0.0165745	
0.00335	-0.0164876	
0.003355	-0.016411	
0.00336	-0.0163448	
0.003365	-0.0162887	
0.00337	-0.0162418	
0.003375	-0.0162033	
0.00338	-0.0161246	
0.003385	-0.0159279	
0.00339	-0.0156154	
0.003395	-0.0152887	
0.0034	-0.0150632	
0.003405	-0.0149151	
0.00341	-0.0147299	
0.003415	-0.0144816	
0.00342	-0.0142033	
0.003425	-0.0139185	
0.00343	-0.0136428	
0.003435	-0.0133862	
0.00344	-0.0131543	
0.003445	-0.0129496	
0.00345	-0.0127726	
0.003455	-0.0125747	
0.00346	-0.0123248	
0.003465	-0.0120524	
0.00347	-0.0117306	
0.003475	-0.0112013	
0.00348	-0.01037	
0.003485	-0.00937898	
0.00349	-0.00823441	
0.003495	-0.00675753	
0.0035	-0.00494125	
0.003505	-0.00289203	
0.00351	-0.000691077	
0.003515	0.00164843	
0.00352	0.00415878	
0.003525	0.00680565	
0.00353	0.0095124	
0.003535	0.0121782	
0.00354	0.0146908	
0.003545	0.0170312	
0.00355	0.0192899	
0.003555	0.0215305	
0.00356	0.0237008	
0.003565	0.0257696	
0.00357	0.0277686	
0.003575	0.0297223	
0.00358	0.0316486	
0.003585	0.0335609	
0.00359	0.0354686	
0.003595	0.037283	
0.0036	0.0389025	
0.003605	0.040412	
0.00361	0.0419203	
0.003615	0.0434513	
0.00362	0.0450201	
0.003625	0.0465871	
0.00363	0.0481264	
0.003635	0.0496696	
0.00364	0.05119	
0.003645	0.0526709	
0.00365	0.0541509	
0.003655	0.0556077	
0.00366	0.0569804	
0.003665	0.0582803	
0.00367	0.0595657	
0.003675	0.0608283	
0.00368	0.0620637	
0.003685	0.0633178	
0.00369	0.0645724	
0.003695	0.0657681	
0.0037	0.0668683	
0.003705	0.0679011	
0.00371	0.0689356	
0.003715	0.0699224	
0.00372	0.0707835	
0.003725	0.0715685	
0.00373	0.0723137	
0.003735	0.0730451	
0.00374	0.0737802	
0.003745	0.0744354	
0.00375	0.0750071	
0.003755	0.0755916	
0.00376	0.0762046	
0.003765	0.0768072	
0.00377	0.0773746	
0.003775	0.0778919	
0.00378	0.0783992	
0.003785	0.0789235	
0.00379	0.0794342	
0.003795	0.0799118	
0.0038	0.0803449	
0.003805	0.0807283	
0.00381	0.0810607	
0.003815	0.0813438	
0.00382	0.0815334	
0.003825	0.0816525	
0.00383	0.0817669	
0.003835	0.0818729	
0.00384	0.0820158	
0.003845	0.0821763	
0.00385	0.0822933	
0.003855	0.082376	
0.00386	0.0824323	
0.003865	0.082516	
0.00387	0.0826137	
0.003875	0.0826212	
0.00388	0.0825211	
0.003885	0.0823549	
0.00389	0.0821529	
0.003895	0.0819369	
0.0039	0.0817219	
0.003905	0.0815178	
0.00391	0.0813304	
0.003915	0.0811629	
0.00392	0.0810165	
0.003925	0.0808909	
0.00393	0.080785	
0.003935	0.0806495	
0.00394	0.0804058	
0.003945	0.0801024	
0.00395	0.079869	
0.003955	0.0796927	
0.00396	0.0794675	
0.003965	0.079173	
0.00397	0.0787993	
0.003975	0.078296	
0.00398	0.0776359	
0.003985	0.0768562	
0.00399	0.0760819	
0.003995	0.0753955	
0.004	0.0747994	
0.004005	0.0742911	
0.00401	0.0738172	
0.004015	0.0732932	
0.00402	0.0727136	
0.004025	0.0721246	
0.00403	0.0715574	
0.004035	0.0709837	
0.00404	0.0703379	
0.004045	0.0696276	
0.00405	0.0689082	
0.004055	0.068217	
0.00406	0.0675295	
0.004065	0.0667818	
0.00407	0.0659824	
0.004075	0.0651866	
0.00408	0.0644783	
0.004085	0.0639089	
0.00409	0.0633628	
0.004095	0.0627154	
0.0041	0.0619841	
0.004105	0.0611848	
0.00411	0.0602832	
0.004115	0.0593093	
0.00412	0.0583338	
0.004125	0.0574035	
0.00413	0.0564993	
0.004135	0.05556	
0.00414	0.0545946	
0.004145	0.0536576	
0.00415	0.0527835	
0.004155	0.0519924	
0.00416	0.0512458	
0.004165	0.0504689	
0.00417	0.0496611	
0.004175	0.0488712	
0.00418	0.0480829	
0.004185	0.0472379	
0.00419	0.0463479	
0.004195	0.0454703	
0.0042	0.0446425	
0.004205	0.0438866	
0.00421	0.0431664	
0.004215	0.0424086	
0.00422	0.0415669	
0.004225	0.0406146	
0.00423	0.0395868	
0.004235	0.0386055	
0.00424	0.0377487	
0.004245	0.0369195	
0.00425	0.0360526	
0.004255	0.0352019	
0.00426	0.0343545	
0.004265	0.0335019	
0.00427	0.0326387	
0.004275	0.0317141	
0.00428	0.0307929	
0.004285	0.029965	
0.00429	0.0291427	
0.004295	0.0282679	
0.0043	0.0273999	
0.004305	0.0265299	
0.00431	0.0256522	
0.004315	0.0247633	
0.00432	0.0238141	
0.004325	0.02287	
0.00433	0.0220215	
0.004335	0.0212285	
0.00434	0.0204622	
0.004345	0.0197972	
0.00435	0.019183	
0.004355	0.0184411	
0.00436	0.0176026	
0.004365	0.0168827	
0.00437	0.0163701	
0.004375	0.0159233	
0.00438	0.0153985	
0.004385	0.0147519	
0.00439	0.0140082	
0.004395	0.0132356	
0.0044	0.0124329	
0.004405	0.0116008	
0.00441	0.0107887	
0.004415	0.0100281	
0.00442	0.00933759	
0.004425	0.00867832	
0.00443	0.0080233	
0.004435	0.00735455	
0.00444	0.00661329	
0.004445	0.00585929	
0.00445	0.00518009	
0.004455	0.00453479	
0.00446	0.00370469	
0.004465	0.00260186	
0.00447	0.00151398	
0.004475	0.000582478	
0.00448	-0.000249392	
0.004485	-0.000976226	
0.00449	-0.00159943	
0.004495	-0.00212482	
0.0045	-0.00256088	
0.004505	-0.00291741	
0.00451	-0.00325218	
0.004515	-0.0036043	
0.00452	-0.00390366	
0.004525	-0.00415409	
0.00453	-0.00440794	
0.004535	-0.00465205	
0.00454	-0.00487818	
0.004545	-0.00508176	
0.00455	-0.00530838	
0.004555	-0.0054444	
0.00456	-0.00537166	
0.004565	-0.00535483	
0.00457	-0.00561336	
0.004575	-0.00613628	
0.00458	-0.00685632	
0.004585	-0.00762475	
0.00459	-0.0083412	
0.004595	-0.00898949	
0.0046	-0.00956218	
0.004605	-0.0100579	
0.00461	-0.0105271	
0.004615	-0.0110039	
0.00462	-0.0114634	
0.004625	-0.0119372	
0.00463	-0.012398	
0.004635	-0.0126859	
0.00464	-0.0127986	
0.004645	-0.0128855	
0.00465	-0.0129513	
0.004655	-0.0130001	
0.00466	-0.0131304	
0.004665	-0.0133559	
0.00467	-0.0136334	
0.004675	-0.0139321	
0.00468	-0.0142307	
0.004685	-0.014515	
0.00469	-0.0147765	
0.004695	-0.0150106	
0.0047	-0.0152156	
0.004705	-0.0153916	
0.00471	-0.0155403	
0.004715	-0.0157114	
0.00472	-0.0159367	
0.004725	-0.0161396	
0.00473	-0.0163181	
0.004735	-0.0165672	
0.00474	-0.016851	
0.004745	-0.0170967	
0.00475	-0.0173058	
0.004755	-0.0174332	
0.00476	-0.0174532	
0.004765	-0.0174015	
0.00477	-0.0173049	
0.004775	-0.0171833	
0.00478	-0.0170509	
0.004785	-0.0169178	
0.00479	-0.0167904	
0.004795	-0.0166728	
0.0048	-0.0165672	
0.004805	-0.0164746	
0.00481	-0.0163949	
0.004815	-0.0163275	
0.00482	-0.0162713	
0.004825	-0.0162728	
0.00483	-0.0163598	
0.004835	-0.0164514	
0.00484	-0.0164943	
0.004845	-0.0164555	
0.00485	-0.0162695	
0.004855	-0.0159003	
0.00486	-0.0153326	
0.004865	-0.0144708	
0.00487	-0.0131706	
0.004875	-0.0114052	
0.00488	-0.00917881	
0.004885	-0.00656372	
0.00489	-0.00376846	
0.004895	-0.000939083	
0.0049	0.00187404	
0.004905	0.00463845	
0.00491	0.00733508	
0.004915	0.00995453	
0.00492	0.0124467	
0.004925	0.0147847	
0.00493	0.0171006	
0.004935	0.0194824	
0.00494	0.0218902	
0.004945	0.0243438	
0.00495	0.0268067	
0.004955	0.0291116	
0.00496	0.0312034	
0.004965	0.0331983	
0.00497	0.0351776	
0.004975	0.037148	
0.00498	0.0391145	
0.004985	0.0410329	
0.00499	0.0428764	
0.004995	0.0446784	
0.005	0.0464153	
0.005005	0.0480747	
0.00501	0.0496996	
0.005015	0.0514626	
0.00502	0.0534708	
0.005025	0.0554508	
0.00503	0.0571758	
