Time - Plot 0	Amplitude - Plot 0	
0	0.00173269	
5E-6	0.0013684	
1E-5	0.000920875	
1.5E-5	0.000392107	
2E-5	-0.000165219	
2.5E-5	-0.000715016	
3E-5	-0.00123384	
3.5E-5	-0.00170771	
4E-5	-0.00212953	
4.5E-5	-0.0025446	
5E-5	-0.00303067	
5.5E-5	-0.0035881	
6E-5	-0.00416621	
6.5E-5	-0.00473061	
7E-5	-0.00530682	
7.5E-5	-0.00591109	
8E-5	-0.00645775	
8.5E-5	-0.00689303	
9E-5	-0.00723429	
9.5E-5	-0.00749742	
0.0001	-0.00769658	
0.000105	-0.00784415	
0.00011	-0.00795072	
0.000115	-0.00802522	
0.00012	-0.00807505	
0.000125	-0.00815379	
0.00013	-0.00834294	
0.000135	-0.00864348	
0.00014	-0.00900325	
0.000145	-0.00938505	
0.00015	-0.00976332	
0.000155	-0.0100738	
0.00016	-0.0102299	
0.000165	-0.0102768	
0.00017	-0.0103445	
0.000175	-0.0104703	
0.00018	-0.0106285	
0.000185	-0.0108005	
0.00019	-0.011021	
0.000195	-0.0113107	
0.0002	-0.0115846	
0.000205	-0.0117877	
0.00021	-0.0119346	
0.000215	-0.0120373	
0.00022	-0.0121062	
0.000225	-0.0121969	
0.00023	-0.0123929	
0.000235	-0.012649	
0.00024	-0.0128375	
0.000245	-0.0129251	
0.00025	-0.0129895	
0.000255	-0.013083	
0.00026	-0.0131439	
0.000265	-0.0131327	
0.00027	-0.0130747	
0.000275	-0.0129884	
0.00028	-0.0128876	
0.000285	-0.0127821	
0.00029	-0.0126783	
0.000295	-0.0125807	
0.0003	-0.0124917	
0.000305	-0.0124126	
0.00031	-0.0123438	
0.000315	-0.0122375	
0.00032	-0.0120164	
0.000325	-0.0116826	
0.00033	-0.0112902	
0.000335	-0.0108778	
0.00034	-0.0104716	
0.000345	-0.0100888	
0.00035	-0.00973954	
0.000355	-0.00938133	
0.00036	-0.00889158	
0.000365	-0.00819564	
0.00037	-0.00730161	
0.000375	-0.00617665	
0.00038	-0.00481003	
0.000385	-0.00330117	
0.00039	-0.00167482	
0.000395	0.000237285	
0.0004	0.00258011	
0.000405	0.00528625	
0.00041	0.00815149	
0.000415	0.0110336	
0.00042	0.0138857	
0.000425	0.0166781	
0.00043	0.0194417	
0.000435	0.0221982	
0.00044	0.0248671	
0.000445	0.0273997	
0.00045	0.0298651	
0.000455	0.0323123	
0.00046	0.0346792	
0.000465	0.0368813	
0.00047	0.0389656	
0.000475	0.0410162	
0.00048	0.0429953	
0.000485	0.0449285	
0.00049	0.0468828	
0.000495	0.048806	
0.0005	0.0506177	
0.000505	0.0523179	
0.00051	0.0540066	
0.000515	0.055703	
0.00052	0.0572767	
0.000525	0.058695	
0.00053	0.0600864	
0.000535	0.0615369	
0.00054	0.0630053	
0.000545	0.064416	
0.00055	0.065722	
0.000555	0.0668971	
0.00056	0.0679304	
0.000565	0.0688688	
0.00057	0.0698429	
0.000575	0.070937	
0.00058	0.0721061	
0.000585	0.0732693	
0.00059	0.0744212	
0.000595	0.0756061	
0.0006	0.0767569	
0.000605	0.0777831	
0.00061	0.0787262	
0.000615	0.0796174	
0.00062	0.0804323	
0.000625	0.0811583	
0.00063	0.0818389	
0.000635	0.0825049	
0.00064	0.0831297	
0.000645	0.0837455	
0.00065	0.0843736	
0.000655	0.0849802	
0.00066	0.0855439	
0.000665	0.0860526	
0.00067	0.0865486	
0.000675	0.0870603	
0.00068	0.0875581	
0.000685	0.0880232	
0.00069	0.0884448	
0.000695	0.0888652	
0.0007	0.0893125	
0.000705	0.0897565	
0.00071	0.0901772	
0.000715	0.0905626	
0.00072	0.0909542	
0.000725	0.0913787	
0.00073	0.0917574	
0.000735	0.0920405	
0.00074	0.0922471	
0.000745	0.0923934	
0.00075	0.0924932	
0.000755	0.0925575	
0.00076	0.0925955	
0.000765	0.0926617	
0.00077	0.092791	
0.000775	0.0929083	
0.00078	0.0929645	
0.000785	0.0929778	
0.00079	0.0929622	
0.000795	0.0929283	
0.0008	0.0928363	
0.000805	0.0926154	
0.00081	0.0923199	
0.000815	0.0920367	
0.00082	0.0917751	
0.000825	0.09154	
0.00083	0.091286	
0.000835	0.090984	
0.00084	0.0906647	
0.000845	0.0903491	
0.00085	0.0900507	
0.000855	0.089778	
0.00086	0.0894874	
0.000865	0.0891513	
0.00087	0.0888011	
0.000875	0.0884106	
0.00088	0.0879645	
0.000885	0.0875028	
0.00089	0.0870527	
0.000895	0.086584	
0.0009	0.0860301	
0.000905	0.0853986	
0.00091	0.084746	
0.000915	0.0841102	
0.00092	0.0835156	
0.000925	0.0829763	
0.00093	0.0824514	
0.000935	0.0818658	
0.00094	0.0811728	
0.000945	0.0803942	
0.00095	0.0796435	
0.000955	0.0789943	
0.00096	0.0783951	
0.000965	0.0777623	
0.00097	0.0771846	
0.000975	0.0767658	
0.00098	0.0763289	
0.000985	0.0757106	
0.00099	0.0750019	
0.000995	0.0743147	
0.001	0.0735791	
0.001005	0.0727037	
0.00101	0.0717301	
0.001015	0.0707378	
0.00102	0.0697325	
0.001025	0.0686711	
0.00103	0.0675755	
0.001035	0.066509	
0.00104	0.0655122	
0.001045	0.0646086	
0.00105	0.063809	
0.001055	0.0630684	
0.00106	0.0623066	
0.001065	0.0615194	
0.00107	0.0607526	
0.001075	0.0600355	
0.00108	0.0594802	
0.001085	0.0591054	
0.00109	0.0586772	
0.001095	0.0580914	
0.0011	0.0573818	
0.001105	0.0565767	
0.00111	0.0557467	
0.001115	0.054892	
0.00112	0.0540139	
0.001125	0.0531143	
0.00113	0.0521957	
0.001135	0.0513078	
0.00114	0.0504348	
0.001145	0.0495178	
0.00115	0.0485675	
0.001155	0.0476403	
0.00116	0.0467247	
0.001165	0.0458124	
0.00117	0.0449455	
0.001175	0.0441019	
0.00118	0.0432186	
0.001185	0.0423034	
0.00119	0.0414103	
0.001195	0.0405742	
0.0012	0.0397675	
0.001205	0.0389234	
0.00121	0.038047	
0.001215	0.0371908	
0.00122	0.0363883	
0.001225	0.0356117	
0.00123	0.0347938	
0.001235	0.0339874	
0.00124	0.0332743	
0.001245	0.0326088	
0.00125	0.0319587	
0.001255	0.031397	
0.00126	0.0309202	
0.001265	0.0303792	
0.00127	0.0296315	
0.001275	0.0286877	
0.00128	0.0278018	
0.001285	0.0271387	
0.00129	0.0266063	
0.001295	0.0260901	
0.0013	0.025514	
0.001305	0.0248781	
0.00131	0.0242329	
0.001315	0.023612	
0.00132	0.022989	
0.001325	0.022299	
0.00133	0.02155	
0.001335	0.0208449	
0.00134	0.0202497	
0.001345	0.0197077	
0.00135	0.0191312	
0.001355	0.0185117	
0.00136	0.0178932	
0.001365	0.017257	
0.00137	0.0165918	
0.001375	0.0158913	
0.00138	0.0151532	
0.001385	0.0144251	
0.00139	0.0136906	
0.001395	0.0129391	
0.0014	0.0122119	
0.001405	0.0115351	
0.00141	0.0109235	
0.001415	0.010384	
0.00142	0.00991732	
0.001425	0.00952087	
0.00143	0.00918944	
0.001435	0.00886902	
0.00144	0.00852348	
0.001445	0.00822526	
0.00145	0.00797234	
0.001455	0.00766619	
0.00146	0.00733941	
0.001465	0.00706202	
0.00147	0.00678279	
0.001475	0.00646801	
0.00148	0.00614469	
0.001485	0.00583101	
0.00149	0.00553854	
0.001495	0.00522635	
0.0015	0.00482085	
0.001505	0.00432547	
0.00151	0.00379426	
0.001515	0.00326455	
0.00152	0.00276089	
0.001525	0.00229822	
0.00153	0.00183692	
0.001535	0.00135081	
0.00154	0.000871344	
0.001545	0.000371389	
0.00155	-0.00016596	
0.001555	-0.000655014	
0.00156	-0.000994024	
0.001565	-0.00121807	
0.00157	-0.00140325	
0.001575	-0.00155405	
0.00158	-0.00172258	
0.001585	-0.00194237	
0.00159	-0.00218555	
0.001595	-0.00238513	
0.0016	-0.00249898	
0.001605	-0.00259846	
0.00161	-0.00273129	
0.001615	-0.00287983	
0.00162	-0.0030317	
0.001625	-0.00317858	
0.00163	-0.00331523	
0.001635	-0.0033436	
0.00164	-0.00315662	
0.001645	-0.00288404	
0.00165	-0.00271051	
0.001655	-0.00265804	
0.00166	-0.00268786	
0.001665	-0.00281807	
0.00167	-0.00305585	
0.001675	-0.00330577	
0.00168	-0.00350434	
0.001685	-0.00365966	
0.00169	-0.00377912	
0.001695	-0.00386928	
0.0017	-0.00393586	
0.001705	-0.00398374	
0.00171	-0.0039695	
0.001715	-0.00386743	
0.00172	-0.00375982	
0.001725	-0.00365364	
0.00173	-0.00345836	
0.001735	-0.00307096	
0.00174	-0.00238507	
0.001745	-0.00143974	
0.00175	-0.000320529	
0.001755	0.000955464	
0.00176	0.00232201	
0.001765	0.00373117	
0.00177	0.00538699	
0.001775	0.00755494	
0.00178	0.0101957	
0.001785	0.0131184	
0.00179	0.0161837	
0.001795	0.0192933	
0.0018	0.02238	
0.001805	0.0254007	
0.00181	0.0283301	
0.001815	0.0311557	
0.00182	0.0338745	
0.001825	0.0363941	
0.00183	0.0386633	
0.001835	0.0408501	
0.00184	0.0430694	
0.001845	0.0453002	
0.00185	0.0474806	
0.001855	0.0496197	
0.00186	0.0517729	
0.001865	0.0538813	
0.00187	0.0559078	
0.001875	0.0578321	
0.00188	0.0596455	
0.001885	0.0613951	
0.00189	0.0631148	
0.001895	0.0648287	
0.0019	0.0665052	
0.001905	0.0680778	
0.00191	0.0695549	
0.001915	0.0709943	
0.00192	0.0723409	
0.001925	0.0735624	
0.00193	0.0747864	
0.001935	0.0760492	
0.00194	0.0772778	
0.001945	0.0784258	
0.00195	0.0795139	
0.001955	0.080606	
0.00196	0.0816968	
0.001965	0.0827825	
0.00197	0.0839563	
0.001975	0.0852275	
0.00198	0.0864555	
0.001985	0.0875967	
0.00199	0.088722	
0.001995	0.0898785	
0.002	0.0910484	
0.002005	0.0921719	
0.00201	0.0932591	
0.002015	0.0944137	
0.00202	0.095653	
0.002025	0.0967947	
0.00203	0.0977227	
0.002035	0.0985137	
0.00204	0.0992719	
0.002045	0.10002	
0.00205	0.100726	
0.002055	0.101372	
0.00206	0.101994	
0.002065	0.102618	
0.00207	0.103216	
0.002075	0.103814	
0.00208	0.104432	
0.002085	0.105081	
0.00209	0.105768	
0.002095	0.1064	
0.0021	0.106965	
0.002105	0.107508	
0.00211	0.108057	
0.002115	0.10868	
0.00212	0.109322	
0.002125	0.109898	
0.00213	0.110404	
0.002135	0.11084	
0.00214	0.111209	
0.002145	0.111516	
0.00215	0.111768	
0.002155	0.111972	
0.00216	0.112134	
0.002165	0.112262	
0.00217	0.11236	
0.002175	0.112434	
0.00218	0.112489	
0.002185	0.112529	
0.00219	0.112509	
0.002195	0.112404	
0.0022	0.112294	
0.002205	0.11214	
0.00221	0.111868	
0.002215	0.111626	
0.00222	0.111511	
0.002225	0.111485	
0.00223	0.111519	
0.002235	0.111543	
0.00224	0.111464	
0.002245	0.111275	
0.00225	0.111068	
0.002255	0.110907	
0.00226	0.110737	
0.002265	0.110521	
0.00227	0.110285	
0.002275	0.109999	
0.00228	0.109599	
0.002285	0.109096	
0.00229	0.108547	
0.002295	0.107995	
0.0023	0.10742	
0.002305	0.106808	
0.00231	0.106249	
0.002315	0.105751	
0.00232	0.10527	
0.002325	0.104822	
0.00233	0.104323	
0.002335	0.103717	
0.00234	0.103071	
0.002345	0.102381	
0.00235	0.101647	
0.002355	0.100919	
0.00236	0.100229	
0.002365	0.0995968	
0.00237	0.0989851	
0.002375	0.0983209	
0.00238	0.0976058	
0.002385	0.0968911	
0.00239	0.0962103	
0.002395	0.0955842	
0.0024	0.0949762	
0.002405	0.0943138	
0.00241	0.0935518	
0.002415	0.0927126	
0.00242	0.0919098	
0.002425	0.091169	
0.00243	0.0904089	
0.002435	0.0896246	
0.00244	0.0888139	
0.002445	0.087929	
0.00245	0.0869896	
0.002455	0.086011	
0.00246	0.0849579	
0.002465	0.083858	
0.00247	0.0827791	
0.002475	0.0817177	
0.00248	0.0806228	
0.002485	0.0795102	
0.00249	0.0784386	
0.002495	0.077397	
0.0025	0.0763295	
0.002505	0.0752478	
0.00251	0.074208	
0.002515	0.0732449	
0.00252	0.0723305	
0.002525	0.0713963	
0.00253	0.0703982	
0.002535	0.0693101	
0.00254	0.0681666	
0.002545	0.0670406	
0.00255	0.0659795	
0.002555	0.0650112	
0.00256	0.0641026	
0.002565	0.063181	
0.00257	0.0622471	
0.002575	0.0613016	
0.00258	0.0602982	
0.002585	0.0592564	
0.00259	0.0582387	
0.002595	0.057285	
0.0026	0.056371	
0.002605	0.0554314	
0.00261	0.0544718	
0.002615	0.0535444	
0.00262	0.0526345	
0.002625	0.0517318	
0.00263	0.0508764	
0.002635	0.0500451	
0.00264	0.0491741	
0.002645	0.0482229	
0.00265	0.0472163	
0.002655	0.0462208	
0.00266	0.0452797	
0.002665	0.0443714	
0.00267	0.0434327	
0.002675	0.0424708	
0.00268	0.0414915	
0.002685	0.0404521	
0.00269	0.0393746	
0.002695	0.0383229	
0.0027	0.0373381	
0.002705	0.0363963	
0.00271	0.03548	
0.002715	0.0346712	
0.00272	0.0339718	
0.002725	0.0332823	
0.00273	0.0325845	
0.002735	0.0319143	
0.00274	0.0312938	
0.002745	0.0306881	
0.00275	0.0300256	
0.002755	0.029262	
0.00276	0.0284203	
0.002765	0.0275668	
0.00277	0.0266985	
0.002775	0.0258139	
0.00278	0.0249605	
0.002785	0.0241203	
0.00279	0.0232337	
0.002795	0.0223582	
0.0028	0.0215792	
0.002805	0.020853	
0.00281	0.0201484	
0.002815	0.0194915	
0.00282	0.018897	
0.002825	0.0183243	
0.00283	0.0177454	
0.002835	0.01719	
0.00284	0.0165811	
0.002845	0.0158232	
0.00285	0.0149554	
0.002855	0.0140561	
0.00286	0.0131787	
0.002865	0.0123571	
0.00287	0.0116112	
0.002875	0.0109505	
0.00288	0.0103772	
0.002885	0.00984117	
0.00289	0.00925994	
0.002895	0.00862887	
0.0029	0.0079948	
0.002905	0.0073412	
0.00291	0.0066581	
0.002915	0.0060354	
0.00292	0.00548197	
0.002925	0.00495286	
0.00293	0.0044648	
0.002935	0.00397937	
0.00294	0.00347108	
0.002945	0.00292424	
0.00295	0.00228277	
0.002955	0.00160924	
0.00296	0.000993971	
0.002965	0.000398679	
0.00297	-0.000202821	
0.002975	-0.000779965	
0.00298	-0.00131375	
0.002985	-0.0017937	
0.00299	-0.00221546	
0.002995	-0.0025789	
0.003	-0.00293423	
0.003005	-0.00336248	
0.00301	-0.00386609	
0.003015	-0.00434803	
0.00302	-0.00474536	
0.003025	-0.00511564	
0.00303	-0.0054981	
0.003035	-0.00587051	
0.00304	-0.00621868	
0.003045	-0.0065344	
0.00305	-0.00686132	
0.003055	-0.00727524	
0.00306	-0.00777447	
0.003065	-0.00830635	
0.00307	-0.00883459	
0.003075	-0.00933546	
0.00308	-0.00974704	
0.003085	-0.0100328	
0.00309	-0.0102695	
0.003095	-0.0105103	
0.0031	-0.0107424	
0.003105	-0.0109577	
0.00311	-0.0111519	
0.003115	-0.0113229	
0.00312	-0.0114705	
0.003125	-0.0116432	
0.00313	-0.0118719	
0.003135	-0.0120792	
0.00314	-0.0122149	
0.003145	-0.0122971	
0.00315	-0.0123401	
0.003155	-0.0123552	
0.00316	-0.0123512	
0.003165	-0.0123348	
0.00317	-0.0123111	
0.003175	-0.0122835	
0.00318	-0.0122548	
0.003185	-0.0122267	
0.00319	-0.0121527	
0.003195	-0.0120045	
0.0032	-0.0118619	
0.003205	-0.0117772	
0.00321	-0.0117348	
0.003215	-0.0117222	
0.00322	-0.0116824	
0.003225	-0.0115789	
0.00323	-0.011486	
0.003235	-0.0114518	
0.00324	-0.0114581	
0.003245	-0.0114907	
0.00325	-0.0115391	
0.003255	-0.0115482	
0.00326	-0.0114358	
0.003265	-0.0112011	
0.00327	-0.0109443	
0.003275	-0.0106852	
0.00328	-0.0103418	
0.003285	-0.00991137	
0.00329	-0.00939649	
0.003295	-0.00880271	
0.0033	-0.00813746	
0.003305	-0.00731396	
0.00331	-0.00618737	
0.003315	-0.00467657	
0.00332	-0.00284128	
0.003325	-0.000736238	
0.00333	0.0015897	
0.003335	0.00404634	
0.00334	0.00656805	
0.003345	0.00910844	
0.00335	0.0116836	
0.003355	0.0143025	
0.00336	0.0169215	
0.003365	0.0194641	
0.00337	0.0218837	
0.003375	0.0242504	
0.00338	0.0266128	
0.003385	0.0289557	
0.00339	0.03127	
0.003395	0.0335512	
0.0034	0.0357975	
0.003405	0.0380098	
0.00341	0.0401426	
0.003415	0.0421219	
0.00342	0.0439541	
0.003425	0.0457452	
0.00343	0.0475671	
0.003435	0.0493707	
0.00344	0.0510769	
0.003445	0.0526857	
0.00345	0.0542492	
0.003455	0.0558041	
0.00346	0.0572797	
0.003465	0.0585856	
0.00347	0.0598131	
0.003475	0.0610733	
0.00348	0.0623907	
0.003485	0.0637308	
0.00349	0.0650227	
0.003495	0.0662691	
0.0035	0.0675217	
0.003505	0.0687667	
0.00351	0.0699477	
0.003515	0.0710783	
0.00352	0.0722172	
0.003525	0.0733552	
0.00353	0.0744389	
0.003535	0.075483	
0.00354	0.0764991	
0.003545	0.0774488	
0.00355	0.0783572	
0.003555	0.0792906	
0.00356	0.0802913	
0.003565	0.0812891	
0.00357	0.0820952	
0.003575	0.0826892	
0.00358	0.0832103	
0.003585	0.0836588	
0.00359	0.0840381	
0.003595	0.0844966	
0.0036	0.085128	
0.003605	0.0858913	
0.00361	0.0866578	
0.003615	0.0873427	
0.00362	0.0879413	
0.003625	0.0884548	
0.00363	0.0889353	
0.003635	0.089419	
0.00364	0.0898819	
0.003645	0.0903091	
0.00365	0.0906451	
0.003655	0.0908575	
0.00366	0.0910259	
0.003665	0.0912525	
0.00367	0.0915541	
0.003675	0.0918435	
0.00368	0.0920636	
0.003685	0.0922751	
0.00369	0.092566	
0.003695	0.0928955	
0.0037	0.0931398	
0.003705	0.0933164	
0.00371	0.0934875	
0.003715	0.0935993	
0.00372	0.0936193	
0.003725	0.0935778	
0.00373	0.0934976	
0.003735	0.0933958	
0.00374	0.0932845	
0.003745	0.0931247	
0.00375	0.0928454	
0.003755	0.0925005	
0.00376	0.0920812	
0.003765	0.09149	
0.00377	0.090861	
0.003775	0.0903318	
0.00378	0.0898935	
0.003785	0.0895359	
0.00379	0.0892484	
0.003795	0.0890207	
0.0038	0.0888432	
0.003805	0.0886597	
0.00381	0.0884333	
0.003815	0.0881894	
0.00382	0.0878979	
0.003825	0.0875414	
0.00383	0.0871587	
0.003835	0.086777	
0.00384	0.0863664	
0.003845	0.0859086	
0.00385	0.085489	
0.003855	0.0851143	
0.00386	0.0846919	
0.003865	0.0842105	
0.00387	0.0837129	
0.003875	0.0831808	
0.00388	0.0825558	
0.003885	0.0818518	
0.00389	0.0811288	
0.003895	0.0804277	
0.0039	0.079774	
0.003905	0.079135	
0.00391	0.0784409	
0.003915	0.0776957	
0.00392	0.0769521	
0.003925	0.0761972	
0.00393	0.0754229	
0.003935	0.074625	
0.00394	0.0737542	
0.003945	0.072829	
0.00395	0.0720543	
0.003955	0.0716055	
0.00396	0.0712504	
0.003965	0.070736	
0.00397	0.0700935	
0.003975	0.0693493	
0.00398	0.0684782	
0.003985	0.0675172	
0.00399	0.0665422	
0.003995	0.0656042	
0.004	0.0646874	
0.004005	0.0637804	
0.00401	0.0629227	
0.004015	0.0620431	
0.00402	0.0610956	
0.004025	0.0601481	
0.00403	0.0591978	
0.004035	0.0582432	
0.00404	0.0572833	
0.004045	0.0562703	
0.00405	0.0552226	
0.004055	0.0542016	
0.00406	0.0532465	
0.004065	0.0523801	
0.00407	0.0515655	
0.004075	0.0507285	
0.00408	0.0498689	
0.004085	0.049035	
0.00409	0.0482575	
0.004095	0.0475064	
0.0041	0.0467132	
0.004105	0.0458821	
0.00411	0.0450655	
0.004115	0.0442495	
0.00412	0.0434248	
0.004125	0.0426336	
0.00413	0.0418542	
0.004135	0.041072	
0.00414	0.0403249	
0.004145	0.0396364	
0.00415	0.0389714	
0.004155	0.0382583	
0.00416	0.0374998	
0.004165	0.0367471	
0.00417	0.0360339	
0.004175	0.0353805	
0.00418	0.0347499	
0.004185	0.0341165	
0.00419	0.0335114	
0.004195	0.0329059	
0.0042	0.0322813	
0.004205	0.0316736	
0.00421	0.0311058	
0.004215	0.0305437	
0.00422	0.0299643	
0.004225	0.0293535	
0.00423	0.0286081	
0.004235	0.0277619	
0.00424	0.0269366	
0.004245	0.0261166	
0.00425	0.0252914	
0.004255	0.0245019	
0.00426	0.0237731	
0.004265	0.0230713	
0.00427	0.0223255	
0.004275	0.0215384	
0.00428	0.0207612	
0.004285	0.0200274	
0.00429	0.0193569	
0.004295	0.0187599	
0.0043	0.0182395	
0.004305	0.0177467	
0.00431	0.0172004	
0.004315	0.0166446	
0.00432	0.0161563	
0.004325	0.0156407	
0.00433	0.0149888	
0.004335	0.0142303	
0.00434	0.0134849	
0.004345	0.0128786	
0.00435	0.0123925	
0.004355	0.0119138	
0.00436	0.0114149	
0.004365	0.0109263	
0.00437	0.0104677	
0.004375	0.0100505	
0.00438	0.00963276	
0.004385	0.00918696	
0.00439	0.00879125	
0.004395	0.00844728	
0.0044	0.00805863	
0.004405	0.00761136	
0.00441	0.0071466	
0.004415	0.00669228	
0.00442	0.00626635	
0.004425	0.00587927	
0.00443	0.00548858	
0.004435	0.00501892	
0.00444	0.00447187	
0.004445	0.00389967	
0.00445	0.00333794	
0.004455	0.0028097	
0.00446	0.00232851	
0.004465	0.00190111	
0.00447	0.00152939	
0.004475	0.00121196	
0.00448	0.000945341	
0.004485	0.000724836	
0.00449	0.000545164	
0.004495	0.000353379	
0.0045	0.000115142	
0.004505	-0.000142455	
0.00451	-0.000448168	
0.004515	-0.000818682	
0.00452	-0.0012144	
0.004525	-0.00160801	
0.00453	-0.00198163	
0.004535	-0.00232438	
0.00454	-0.00258304	
0.004545	-0.00272649	
0.00455	-0.00283472	
0.004555	-0.00296214	
0.00456	-0.0030962	
0.004565	-0.00322829	
0.00457	-0.00335283	
0.004575	-0.00346651	
0.00458	-0.00356764	
0.004585	-0.00365573	
0.00459	-0.00373104	
0.004595	-0.00379436	
0.0046	-0.00389433	
0.004605	-0.00406126	
0.00461	-0.00421692	
0.004615	-0.00431024	
0.00462	-0.00440558	
0.004625	-0.00459282	
0.00463	-0.00483179	
0.004635	-0.00495096	
0.00464	-0.00489044	
0.004645	-0.00476184	
0.00465	-0.00464196	
0.004655	-0.00453351	
0.00466	-0.00443772	
0.004665	-0.0043548	
0.00467	-0.00428431	
0.004675	-0.00422533	
0.00468	-0.00417673	
0.004685	-0.00413729	
0.00469	-0.00410573	
0.004695	-0.00412841	
0.0047	-0.00423332	
0.004705	-0.0042924	
0.00471	-0.00417587	
0.004715	-0.00394906	
0.00472	-0.00370781	
0.004725	-0.00337337	
0.00473	-0.0028507	
0.004735	-0.00218111	
0.00474	-0.00139878	
0.004745	-0.000436515	
0.00475	0.000836553	
0.004755	0.00253955	
0.00476	0.00468314	
0.004765	0.00715845	
0.00477	0.00978295	
0.004775	0.0124292	
0.00478	0.0151073	
0.004785	0.0178222	
0.00479	0.0204806	
0.004795	0.0230711	
0.0048	0.0256844	
0.004805	0.0282842	
0.00481	0.0307996	
0.004815	0.0332356	
0.00482	0.035599	
0.004825	0.0378979	
0.00483	0.0401405	
0.004835	0.042335	
0.00484	0.0444892	
0.004845	0.0466098	
0.00485	0.0487032	
0.004855	0.0507271	
0.00486	0.0526094	
0.004865	0.054357	
0.00487	0.0560281	
0.004875	0.0576647	
0.00488	0.0592964	
0.004885	0.0608476	
0.00489	0.0622723	
0.004895	0.0637365	
0.0049	0.0653	
0.004905	0.0669025	
0.00491	0.0685501	
0.004915	0.070197	
0.00492	0.0717656	
0.004925	0.0732082	
0.00493	0.0744997	
0.004935	0.075678	
0.00494	0.0768209	
0.004945	0.0779339	
0.00495	0.0790223	
0.004955	0.0801378	
0.00496	0.0812662	
0.004965	0.0823971	
0.00497	0.0835237	
0.004975	0.0845467	
0.00498	0.0855956	
0.004985	0.0868497	
0.00499	0.0880846	
0.004995	0.0891534	
0.005	0.0901573	
0.005005	0.0911183	
0.00501	0.0920057	
0.005015	0.0927549	
0.00502	0.0933777	
0.005025	0.0940303	
0.00503	0.0947191	
0.005035	0.0953518	
0.00504	0.0959175	
0.005045	0.0964123	
0.00505	0.0968844	
0.005055	0.0973668	
