Time - Plot 0	Amplitude - Plot 0	
0	-0.0268695	
5E-6	-0.02713	
1E-5	-0.0273496	
1.5E-5	-0.0275318	
2E-5	-0.0276807	
2.5E-5	-0.0278007	
3E-5	-0.0279434	
3.5E-5	-0.0281419	
4E-5	-0.0283202	
4.5E-5	-0.0284293	
5E-5	-0.0285352	
5.5E-5	-0.0287289	
6E-5	-0.0290189	
6.5E-5	-0.0293113	
7E-5	-0.0294962	
7.5E-5	-0.0296015	
8E-5	-0.0297445	
8.5E-5	-0.029858	
9E-5	-0.029804	
9.5E-5	-0.0296898	
0.0001	-0.0296838	
0.000105	-0.0297495	
0.00011	-0.0297642	
0.000115	-0.0297447	
0.00012	-0.029751	
0.000125	-0.0296315	
0.00013	-0.029292	
0.000135	-0.0289187	
0.00014	-0.0286357	
0.000145	-0.0284258	
0.00015	-0.0282263	
0.000155	-0.0279956	
0.00016	-0.0277554	
0.000165	-0.0274726	
0.00017	-0.0271276	
0.000175	-0.0267579	
0.00018	-0.0263418	
0.000185	-0.0259149	
0.00019	-0.0255486	
0.000195	-0.0250969	
0.0002	-0.0244202	
0.000205	-0.023532	
0.00021	-0.0222611	
0.000215	-0.0203703	
0.00022	-0.0179225	
0.000225	-0.0150806	
0.00023	-0.0119706	
0.000235	-0.00873591	
0.00024	-0.00547693	
0.000245	-0.00226099	
0.00025	0.000869528	
0.000255	0.0038432	
0.00026	0.0065728	
0.000265	0.00905991	
0.00027	0.0114121	
0.000275	0.0137067	
0.00028	0.0159498	
0.000285	0.0181481	
0.00029	0.0203077	
0.000295	0.0224349	
0.0003	0.0244401	
0.000305	0.02627	
0.00031	0.0280879	
0.000315	0.0300971	
0.00032	0.03228	
0.000325	0.0343792	
0.00033	0.0362288	
0.000335	0.0378738	
0.00034	0.0394013	
0.000345	0.0408265	
0.00035	0.0421645	
0.000355	0.0434767	
0.00036	0.0447573	
0.000365	0.0459567	
0.00037	0.0470932	
0.000375	0.0482296	
0.00038	0.0493597	
0.000385	0.0504797	
0.00039	0.0516352	
0.000395	0.0529021	
0.0004	0.0542775	
0.000405	0.0555643	
0.00041	0.0566369	
0.000415	0.0575649	
0.00042	0.0584488	
0.000425	0.0593094	
0.00043	0.0601614	
0.000435	0.0610626	
0.00044	0.062001	
0.000445	0.0629197	
0.00045	0.0637819	
0.000455	0.064566	
0.00046	0.0653091	
0.000465	0.0660376	
0.00047	0.066722	
0.000475	0.0673924	
0.00048	0.0680695	
0.000485	0.0687665	
0.00049	0.0693961	
0.000495	0.0698089	
0.0005	0.0701543	
0.000505	0.0705815	
0.00051	0.0709949	
0.000515	0.0713797	
0.00052	0.0718224	
0.000525	0.07233	
0.00053	0.0728563	
0.000535	0.0733226	
0.00054	0.0736796	
0.000545	0.0739953	
0.00055	0.0743163	
0.000555	0.0746257	
0.00056	0.0749127	
0.000565	0.0751715	
0.00057	0.0753993	
0.000575	0.0755961	
0.00058	0.0757629	
0.000585	0.0758072	
0.00059	0.0756258	
0.000595	0.0753519	
0.0006	0.0751249	
0.000605	0.0748921	
0.00061	0.0746665	
0.000615	0.0745038	
0.00062	0.0743427	
0.000625	0.0741428	
0.00063	0.0739268	
0.000635	0.0737579	
0.00064	0.073628	
0.000645	0.073435	
0.00065	0.0732094	
0.000655	0.072973	
0.00066	0.0726932	
0.000665	0.0724455	
0.00067	0.0722307	
0.000675	0.0719526	
0.00068	0.0716461	
0.000685	0.0713827	
0.00069	0.0711128	
0.000695	0.0708037	
0.0007	0.070436	
0.000705	0.0699518	
0.00071	0.0693663	
0.000715	0.0687417	
0.00072	0.0681208	
0.000725	0.0674841	
0.00073	0.0667722	
0.000735	0.0659967	
0.00074	0.0651685	
0.000745	0.0642972	
0.00075	0.0634862	
0.000755	0.0627533	
0.00076	0.0620114	
0.000765	0.0612513	
0.00077	0.0605151	
0.000775	0.0597819	
0.00078	0.0589902	
0.000785	0.05815	
0.00079	0.0573175	
0.000795	0.0565295	
0.0008	0.0557605	
0.000805	0.0549453	
0.00081	0.0540908	
0.000815	0.0532507	
0.00082	0.0524598	
0.000825	0.0516913	
0.00083	0.0508788	
0.000835	0.0499806	
0.00084	0.0489734	
0.000845	0.0478944	
0.00085	0.0468191	
0.000855	0.0457971	
0.00086	0.044811	
0.000865	0.0438002	
0.00087	0.0427258	
0.000875	0.0415653	
0.00088	0.0403552	
0.000885	0.0391699	
0.00089	0.0381043	
0.000895	0.0372157	
0.0009	0.0364382	
0.000905	0.0356758	
0.00091	0.0348642	
0.000915	0.0340111	
0.00092	0.0331234	
0.000925	0.0322074	
0.00093	0.031316	
0.000935	0.0304355	
0.00094	0.0295562	
0.000945	0.0286719	
0.00095	0.0277309	
0.000955	0.0267496	
0.00096	0.0257881	
0.000965	0.0248376	
0.00097	0.0238917	
0.000975	0.0230413	
0.00098	0.0222939	
0.000985	0.0215547	
0.00099	0.0208085	
0.000995	0.0200453	
0.001	0.0192119	
0.001005	0.0183242	
0.00101	0.0174426	
0.001015	0.0165592	
0.00102	0.0156214	
0.001025	0.014692	
0.00103	0.0138597	
0.001035	0.0130832	
0.00104	0.0123327	
0.001045	0.0116348	
0.00105	0.0109571	
0.001055	0.0102297	
0.00106	0.00945642	
0.001065	0.00868942	
0.00107	0.00796286	
0.001075	0.00724978	
0.00108	0.00648426	
0.001085	0.00567283	
0.00109	0.00482197	
0.001095	0.00393782	
0.0011	0.00312108	
0.001105	0.00243495	
0.00111	0.00181985	
0.001115	0.0011856	
0.00112	0.000473667	
0.001125	-0.000303359	
0.00113	-0.00108655	
0.001135	-0.00183676	
0.00114	-0.00248221	
0.001145	-0.00302806	
0.00115	-0.00357749	
0.001155	-0.00419836	
0.00116	-0.00493205	
0.001165	-0.00575295	
0.00117	-0.00659252	
0.001175	-0.00735717	
0.00118	-0.00803625	
0.001185	-0.00872186	
0.00119	-0.00942688	
0.001195	-0.0101589	
0.0012	-0.0109216	
0.001205	-0.0116685	
0.00121	-0.0123696	
0.001215	-0.0130074	
0.00122	-0.0136208	
0.001225	-0.0142367	
0.00123	-0.0147775	
0.001235	-0.0152432	
0.00124	-0.0157325	
0.001245	-0.0162617	
0.00125	-0.0167922	
0.001255	-0.0172984	
0.00126	-0.0177648	
0.001265	-0.0182302	
0.00127	-0.0187682	
0.001275	-0.0193761	
0.00128	-0.0200013	
0.001285	-0.0206083	
0.00129	-0.0211747	
0.001295	-0.02164	
0.0013	-0.021969	
0.001305	-0.0222401	
0.00131	-0.0225079	
0.001315	-0.0227607	
0.00132	-0.0229917	
0.001325	-0.0231974	
0.00133	-0.0233767	
0.001335	-0.0235301	
0.00134	-0.0237067	
0.001345	-0.0239853	
0.00135	-0.0243656	
0.001355	-0.0247949	
0.00136	-0.0252361	
0.001365	-0.0256645	
0.00137	-0.026064	
0.001375	-0.0264257	
0.00138	-0.0266502	
0.001385	-0.0266786	
0.00139	-0.0266714	
0.001395	-0.0267361	
0.0014	-0.0268452	
0.001405	-0.0269785	
0.00141	-0.0271213	
0.001415	-0.0272637	
0.00142	-0.027399	
0.001425	-0.0275233	
0.00143	-0.0276345	
0.001435	-0.0277793	
0.00144	-0.0279869	
0.001445	-0.0281786	
0.00145	-0.0283508	
0.001455	-0.0285969	
0.00146	-0.0289753	
0.001465	-0.0293755	
0.00147	-0.029581	
0.001475	-0.0296483	
0.00148	-0.0297165	
0.001485	-0.0297344	
0.00149	-0.0296709	
0.001495	-0.0295091	
0.0015	-0.029195	
0.001505	-0.028748	
0.00151	-0.0282344	
0.001515	-0.0277011	
0.00152	-0.0271802	
0.001525	-0.026692	
0.00153	-0.0262485	
0.001535	-0.0258555	
0.00154	-0.0255142	
0.001545	-0.0252233	
0.00155	-0.0249319	
0.001555	-0.0245587	
0.00156	-0.0240542	
0.001565	-0.0233445	
0.00157	-0.0223903	
0.001575	-0.021035	
0.00158	-0.0189563	
0.001585	-0.0161662	
0.00159	-0.0129916	
0.001595	-0.00966595	
0.0016	-0.00625548	
0.001605	-0.00280777	
0.00161	0.000596493	
0.001615	0.00390617	
0.00162	0.00709202	
0.001625	0.0101406	
0.00163	0.0130496	
0.001635	0.015824	
0.00164	0.0184735	
0.001645	0.0210579	
0.00165	0.0236674	
0.001655	0.0263125	
0.00166	0.0288561	
0.001665	0.0311648	
0.00167	0.0332571	
0.001675	0.0352027	
0.00168	0.0370547	
0.001685	0.0388049	
0.00169	0.0404052	
0.001695	0.0418785	
0.0017	0.043341	
0.001705	0.0449173	
0.00171	0.0465892	
0.001715	0.0482451	
0.00172	0.0498596	
0.001725	0.0514655	
0.00173	0.0530849	
0.001735	0.0546841	
0.00174	0.0561943	
0.001745	0.057527	
0.00175	0.0586795	
0.001755	0.0598013	
0.00176	0.0609449	
0.001765	0.0620963	
0.00177	0.0632935	
0.001775	0.0645593	
0.00178	0.0659055	
0.001785	0.0672887	
0.00179	0.0686307	
0.001795	0.0699298	
0.0018	0.0711865	
0.001805	0.0723559	
0.00181	0.07346	
0.001815	0.0744688	
0.00182	0.0753195	
0.001825	0.0760732	
0.00183	0.076775	
0.001835	0.0774567	
0.00184	0.0781881	
0.001845	0.0789653	
0.00185	0.0797357	
0.001855	0.0805129	
0.00186	0.0813054	
0.001865	0.0820228	
0.00187	0.0826568	
0.001875	0.083301	
0.00188	0.0839689	
0.001885	0.0846208	
0.00189	0.0852314	
0.001895	0.0857383	
0.0019	0.0861054	
0.001905	0.0864104	
0.00191	0.0867076	
0.001915	0.0869856	
0.00192	0.0872378	
0.001925	0.087461	
0.00193	0.0877022	
0.001935	0.0879913	
0.00194	0.0882507	
0.001945	0.0884784	
0.00195	0.0887219	
0.001955	0.0889167	
0.00196	0.0890227	
0.001965	0.0890652	
0.00197	0.0890637	
0.001975	0.0890333	
0.00198	0.0889854	
0.001985	0.088928	
0.00199	0.0888197	
0.001995	0.0886354	
0.002	0.0884572	
0.002005	0.088339	
0.00201	0.0882659	
0.002015	0.0882261	
0.00202	0.08821	
0.002025	0.0882104	
0.00203	0.0881741	
0.002035	0.0880678	
0.00204	0.0879203	
0.002045	0.0877052	
0.00205	0.087408	
0.002055	0.0870709	
0.00206	0.0867233	
0.002065	0.0863378	
0.00207	0.0858979	
0.002075	0.0854905	
0.00208	0.0851714	
0.002085	0.084878	
0.00209	0.0845204	
0.002095	0.0840898	
0.0021	0.0836315	
0.002105	0.0831765	
0.00211	0.0826978	
0.002115	0.082131	
0.00212	0.0814853	
0.002125	0.0808182	
0.00213	0.080121	
0.002135	0.0793419	
0.00214	0.078498	
0.002145	0.0776989	
0.00215	0.0769671	
0.002155	0.0762193	
0.00216	0.0754012	
0.002165	0.0744803	
0.00217	0.0735352	
0.002175	0.072619	
0.00218	0.0716699	
0.002185	0.0706966	
0.00219	0.0697533	
0.002195	0.0688745	
0.0022	0.0680321	
0.002205	0.0671587	
0.00221	0.0662584	
0.002215	0.0653831	
0.00222	0.064518	
0.002225	0.0636532	
0.00223	0.0628294	
0.002235	0.0619765	
0.00224	0.0609546	
0.002245	0.0597746	
0.00225	0.0585462	
0.002255	0.0573439	
0.00226	0.0562157	
0.002265	0.0551897	
0.00227	0.0542321	
0.002275	0.0532223	
0.00228	0.0521308	
0.002285	0.051037	
0.00229	0.0499934	
0.002295	0.0490323	
0.0023	0.0481235	
0.002305	0.0471972	
0.00231	0.0462079	
0.002315	0.0451765	
0.00232	0.0442136	
0.002325	0.0433413	
0.00233	0.0424751	
0.002335	0.0416063	
0.00234	0.0407293	
0.002345	0.0397933	
0.00235	0.0388151	
0.002355	0.0378555	
0.00236	0.0369059	
0.002365	0.0359127	
0.00237	0.0348903	
0.002375	0.0338969	
0.00238	0.0329221	
0.002385	0.0319107	
0.00239	0.0308753	
0.002395	0.0298256	
0.0024	0.0287211	
0.002405	0.0275851	
0.00241	0.0264821	
0.002415	0.0254055	
0.00242	0.0243496	
0.002425	0.0234049	
0.00243	0.0225782	
0.002435	0.0217734	
0.00244	0.0209734	
0.002445	0.0202145	
0.00245	0.0194711	
0.002455	0.0186304	
0.00246	0.0176703	
0.002465	0.0167244	
0.00247	0.0158325	
0.002475	0.0149235	
0.00248	0.0139986	
0.002485	0.0130594	
0.00249	0.0120601	
0.002495	0.011021	
0.0025	0.0100047	
0.002505	0.00905159	
0.00251	0.00818517	
0.002515	0.00736937	
0.00252	0.00653046	
0.002525	0.00566846	
0.00253	0.00483199	
0.002535	0.00405194	
0.00254	0.00325089	
0.002545	0.00237883	
0.00255	0.00154872	
0.002555	0.000785536	
0.00256	5.50401E-5	
0.002565	-0.000666887	
0.00257	-0.00144409	
0.002575	-0.00226851	
0.00258	-0.00308508	
0.002585	-0.00385784	
0.00259	-0.00461271	
0.002595	-0.00541515	
0.0026	-0.00625853	
0.002605	-0.00704148	
0.00261	-0.00770002	
0.002615	-0.00829292	
0.00262	-0.00886204	
0.002625	-0.00938855	
0.00263	-0.00990961	
0.002635	-0.0104975	
0.00264	-0.0111492	
0.002645	-0.0118121	
0.00265	-0.012451	
0.002655	-0.0130915	
0.00266	-0.0137503	
0.002665	-0.0143899	
0.00267	-0.0150342	
0.002675	-0.0156986	
0.00268	-0.0163449	
0.002685	-0.0169487	
0.00269	-0.0174958	
0.002695	-0.0179798	
0.0027	-0.0183992	
0.002705	-0.0188037	
0.00271	-0.0192744	
0.002715	-0.0198615	
0.00272	-0.0205451	
0.002725	-0.0212125	
0.00273	-0.0218376	
0.002735	-0.0224528	
0.00274	-0.0230324	
0.002745	-0.0236086	
0.00275	-0.0242029	
0.002755	-0.0247335	
0.00276	-0.0251494	
0.002765	-0.0255175	
0.00277	-0.0258368	
0.002775	-0.0260612	
0.00278	-0.02626	
0.002785	-0.0264325	
0.00279	-0.026532	
0.002795	-0.0266261	
0.0028	-0.0267598	
0.002805	-0.0269133	
0.00281	-0.0269774	
0.002815	-0.0268846	
0.00282	-0.0267878	
0.002825	-0.0268354	
0.00283	-0.0270712	
0.002835	-0.0274674	
0.00284	-0.0279506	
0.002845	-0.0284683	
0.00285	-0.0289368	
0.002855	-0.0292556	
0.00286	-0.029413	
0.002865	-0.0294566	
0.00287	-0.0294707	
0.002875	-0.0295122	
0.00288	-0.0295221	
0.002885	-0.0295109	
0.00289	-0.0295813	
0.002895	-0.0297022	
0.0029	-0.0297556	
0.002905	-0.0297144	
0.00291	-0.0296128	
0.002915	-0.0294762	
0.00292	-0.029323	
0.002925	-0.029166	
0.00293	-0.0290141	
0.002935	-0.0288725	
0.00294	-0.0286971	
0.002945	-0.0284125	
0.00295	-0.0279743	
0.002955	-0.0273605	
0.00296	-0.0265649	
0.002965	-0.0254018	
0.00297	-0.0235761	
0.002975	-0.0210671	
0.00298	-0.0180361	
0.002985	-0.0146617	
0.00299	-0.0111253	
0.002995	-0.00755445	
0.003	-0.0040346	
0.003005	-0.000619815	
0.00301	0.00261173	
0.003015	0.00561714	
0.00302	0.0084739	
0.003025	0.0112402	
0.00303	0.0138634	
0.003035	0.0163159	
0.00304	0.0186348	
0.003045	0.020851	
0.00305	0.0229898	
0.003055	0.0250714	
0.00306	0.027112	
0.003065	0.0290765	
0.00307	0.0309455	
0.003075	0.0327582	
0.00308	0.0345431	
0.003085	0.0363203	
0.00309	0.0380559	
0.003095	0.0397296	
0.0031	0.0413782	
0.003105	0.04298	
0.00311	0.0444752	
0.003115	0.0459243	
0.00312	0.0474172	
0.003125	0.0489158	
0.00313	0.0503949	
0.003135	0.0518387	
0.00314	0.053191	
0.003145	0.0544189	
0.00315	0.0555542	
0.003155	0.05667	
0.00316	0.0577675	
0.003165	0.0588012	
0.00317	0.0597914	
0.003175	0.0608011	
0.00318	0.0618235	
0.003185	0.0628535	
0.00319	0.0638872	
0.003195	0.0648746	
0.0032	0.0658322	
0.003205	0.0667724	
0.00321	0.0676092	
0.003215	0.0682906	
0.00322	0.0689325	
0.003225	0.0696129	
0.00323	0.0702867	
0.003235	0.0710192	
0.00324	0.0718984	
0.003245	0.0728804	
0.00325	0.0738835	
0.003255	0.0748533	
0.00326	0.0757551	
0.003265	0.0765695	
0.00327	0.0773353	
0.003275	0.0781279	
0.00328	0.0789482	
0.003285	0.0797004	
0.00329	0.0802771	
0.003295	0.0807107	
0.0033	0.0811247	
0.003305	0.0814585	
0.00331	0.0816287	
0.003315	0.0817779	
0.00332	0.0820489	
0.003325	0.0823873	
0.00333	0.0826592	
0.003335	0.0829219	
0.00334	0.083261	
0.003345	0.0835871	
0.00335	0.0838417	
0.003355	0.0840369	
0.00336	0.0841839	
0.003365	0.0842445	
0.00337	0.0841978	
0.003375	0.0841301	
0.00338	0.0840993	
0.003385	0.0840467	
0.00339	0.0839347	
0.003395	0.0838364	
0.0034	0.0838468	
0.003405	0.0839759	
0.00341	0.0841297	
0.003415	0.0841499	
0.00342	0.0839384	
0.003425	0.0835841	
0.00343	0.0832	
0.003435	0.0828145	
0.00344	0.0823986	
0.003445	0.0818874	
0.00345	0.0813374	
0.003455	0.0808355	
0.00346	0.0803415	
0.003465	0.0798284	
0.00347	0.0793272	
0.003475	0.0788574	
0.00348	0.0784305	
0.003485	0.0780046	
0.00349	0.0775045	
0.003495	0.0768839	
0.0035	0.0761658	
0.003505	0.0754649	
0.00351	0.074856	
0.003515	0.074289	
0.00352	0.0736814	
0.003525	0.0730282	
0.00353	0.0723759	
0.003535	0.0717074	
0.00354	0.0709649	
0.003545	0.0701136	
0.00355	0.0691832	
0.003555	0.0682923	
0.00356	0.0674696	
0.003565	0.0666356	
0.00357	0.0657862	
0.003575	0.0649667	
0.00358	0.0642057	
0.003585	0.0634718	
0.00359	0.0625527	
0.003595	0.0613649	
0.0036	0.0601511	
0.003605	0.0591678	
0.00361	0.058478	
0.003615	0.0578242	
0.00362	0.057035	
0.003625	0.0561938	
0.00363	0.0553105	
0.003635	0.0543938	
0.00364	0.0534508	
0.003645	0.0524876	
0.00365	0.0515566	
0.003655	0.0505958	
0.00366	0.0495181	
0.003665	0.048367	
0.00367	0.0472692	
0.003675	0.0463062	
0.00368	0.0453825	
0.003685	0.0444808	
0.00369	0.0436839	
0.003695	0.0428987	
0.0037	0.0419681	
0.003705	0.0408431	
0.00371	0.0396432	
0.003715	0.0384982	
0.00372	0.0373959	
0.003725	0.0362789	
0.00373	0.0351575	
0.003735	0.0340863	
0.00374	0.0330987	
0.003745	0.0322131	
0.00375	0.031389	
0.003755	0.0305494	
0.00376	0.0296918	
0.003765	0.0288152	
0.00377	0.0278727	
0.003775	0.0268836	
0.00378	0.0259581	
0.003785	0.025166	
0.00379	0.0244516	
0.003795	0.0237273	
0.0038	0.0229355	
0.003805	0.0220893	
0.00381	0.0212471	
0.003815	0.0204474	
0.00382	0.0196661	
0.003825	0.0188387	
0.00383	0.0179726	
0.003835	0.0171219	
0.00384	0.0162741	
0.003845	0.0153731	
0.00385	0.0144323	
0.003855	0.0135096	
0.00386	0.0126425	
0.003865	0.0118057	
0.00387	0.0109807	
0.003875	0.0102026	
0.00388	0.00944468	
0.003885	0.00868839	
0.00389	0.0079214	
0.003895	0.0071361	
0.0039	0.00637586	
0.003905	0.00562058	
0.00391	0.00485675	
0.003915	0.00412341	
0.00392	0.00339732	
0.003925	0.00266282	
0.00393	0.00195752	
0.003935	0.0012573	
0.00394	0.000545996	
0.003945	-0.00013896	
0.00395	-0.000821686	
0.003955	-0.00156572	
0.00396	-0.00236252	
0.003965	-0.00315643	
0.00397	-0.00395841	
0.003975	-0.00477533	
0.00398	-0.00551591	
0.003985	-0.00617113	
0.00399	-0.00683416	
0.003995	-0.00751851	
0.004	-0.00818455	
0.004005	-0.00880701	
0.00401	-0.00941883	
0.004015	-0.0100898	
0.00402	-0.010768	
0.004025	-0.0113713	
0.00403	-0.0119443	
0.004035	-0.0125178	
0.00404	-0.0130644	
0.004045	-0.0135674	
0.00405	-0.014018	
0.004055	-0.0144601	
0.00406	-0.0149709	
0.004065	-0.0155503	
0.00407	-0.0161475	
0.004075	-0.0166807	
0.00408	-0.017099	
0.004085	-0.0175167	
0.00409	-0.0180094	
0.004095	-0.0184807	
0.0041	-0.0188681	
0.004105	-0.0191818	
0.00411	-0.0194321	
0.004115	-0.0196762	
0.00412	-0.0199999	
0.004125	-0.0204082	
0.00413	-0.020853	
0.004135	-0.0213008	
0.00414	-0.0217295	
0.004145	-0.0221252	
0.00415	-0.0224805	
0.004155	-0.0227923	
0.00416	-0.0231083	
0.004165	-0.0234596	
0.00417	-0.0238175	
0.004175	-0.0242105	
0.00418	-0.0246555	
0.004185	-0.0250662	
0.00419	-0.0253398	
0.004195	-0.02551	
0.0042	-0.0256517	
0.004205	-0.0257677	
0.00421	-0.0258614	
0.004215	-0.0259359	
0.00422	-0.0260417	
0.004225	-0.0262108	
0.00423	-0.0264136	
0.004235	-0.026629	
0.00424	-0.0268425	
0.004245	-0.0270446	
0.00425	-0.0272298	
0.004255	-0.027395	
0.00426	-0.0275391	
0.004265	-0.0276151	
0.00427	-0.027595	
0.004275	-0.02756	
0.00428	-0.0275644	
0.004285	-0.0275946	
0.00429	-0.0275927	
0.004295	-0.0275224	
0.0043	-0.0274577	
0.004305	-0.0273998	
0.00431	-0.0272541	
0.004315	-0.0270098	
0.00432	-0.0266646	
0.004325	-0.0262215	
0.00433	-0.02583	
0.004335	-0.0255861	
0.00434	-0.0254035	
0.004345	-0.0252225	
0.00435	-0.025051	
0.004355	-0.0248939	
0.00436	-0.0247537	
0.004365	-0.0246314	
0.00437	-0.024479	
0.004375	-0.0242665	
0.00438	-0.0240245	
0.004385	-0.0237743	
0.00439	-0.0235307	
0.004395	-0.0232554	
0.0044	-0.0228771	
0.004405	-0.0222111	
0.00441	-0.0210067	
0.004415	-0.019219	
0.00442	-0.0169412	
0.004425	-0.0143052	
0.00443	-0.0114628	
0.004435	-0.00852367	
0.00444	-0.00556464	
0.004445	-0.00258986	
0.00445	0.000397202	
0.004455	0.00329862	
0.00446	0.00605388	
0.004465	0.00872506	
0.00447	0.0113571	
0.004475	0.0139338	
0.00448	0.0164949	
0.004485	0.0190671	
0.00449	0.0215725	
0.004495	0.0239629	
0.0045	0.0262594	
0.004505	0.0284331	
0.00451	0.0304704	
0.004515	0.0324641	
0.00452	0.0344297	
0.004525	0.0362839	
0.00453	0.0380245	
0.004535	0.0397029	
0.00454	0.0413085	
0.004545	0.0427901	
0.00455	0.0442149	
0.004555	0.0456776	
0.00456	0.0471435	
0.004565	0.0485422	
0.00457	0.0498781	
0.004575	0.0511568	
0.00458	0.0523373	
0.004585	0.0534924	
0.00459	0.0547187	
0.004595	0.0559814	
0.0046	0.0572084	
0.004605	0.0583539	
0.00461	0.059439	
0.004615	0.0605279	
0.00462	0.0616631	
0.004625	0.06287	
0.00463	0.0641147	
0.004635	0.0653255	
0.00464	0.0665041	
0.004645	0.0677009	
0.00465	0.0689006	
0.004655	0.070093	
0.00466	0.0712717	
0.004665	0.0723381	
0.00467	0.0733751	
0.004675	0.0744863	
0.00468	0.0754512	
0.004685	0.0761314	
0.00469	0.0766393	
0.004695	0.0771046	
0.0047	0.0775674	
0.004705	0.0780066	
0.00471	0.0784094	
0.004715	0.0787693	
0.00472	0.0791314	
0.004725	0.0795728	
0.00473	0.0800932	
0.004735	0.0806411	
0.00474	0.0811811	
0.004745	0.0816905	
0.00475	0.082108	
0.004755	0.0823977	
0.00476	0.0826369	
0.004765	0.0829741	
0.00477	0.0834076	
0.004775	0.0836938	
0.00478	0.0837744	
0.004785	0.0838106	
0.00479	0.0838159	
0.004795	0.083753	
0.0048	0.0836956	
0.004805	0.0836921	
0.00481	0.0836768	
0.004815	0.0836069	
0.00482	0.0835043	
0.004825	0.083385	
0.00483	0.0832603	
0.004835	0.0830905	
0.00484	0.0828513	
0.004845	0.0826253	
0.00485	0.0824662	
0.004855	0.0822637	
0.00486	0.081947	
0.004865	0.0815701	
0.00487	0.0811237	
0.004875	0.0806527	
0.00488	0.0802351	
0.004885	0.0798251	
0.00489	0.079392	
0.004895	0.0789164	
0.0049	0.078388	
0.004905	0.0778971	
0.00491	0.0774542	
0.004915	0.0770165	
0.00492	0.0765552	
0.004925	0.0760052	
0.00493	0.0753752	
0.004935	0.0746746	
0.00494	0.0739132	
0.004945	0.0731476	
0.00495	0.072368	
0.004955	0.071521	
0.00496	0.0706695	
0.004965	0.0698553	
0.00497	0.0690093	
0.004975	0.0681347	
0.00498	0.0672826	
0.004985	0.0664856	
0.00499	0.0657152	
0.004995	0.0649036	
0.005	0.0640083	
0.005005	0.0630524	
0.00501	0.062102	
0.005015	0.0611525	
0.00502	0.0602009	
0.005025	0.0592931	
0.00503	0.0584095	
0.005035	0.0574885	
0.00504	0.0564915	
0.005045	0.0554439	
0.00505	0.0544124	
0.005055	0.053393	
